3996.29776	0.01863
3994.23781	0.01864
3992.17786	0.01872
3990.11791	0.01874
3988.05797	0.01867
3985.99802	0.01857
3983.93807	0.01857
3981.87813	0.01865
3979.81818	0.01868
3977.75823	0.01870
3975.69828	0.01873
3973.63834	0.01869
3971.57839	0.01867
3969.51844	0.01873
3967.45849	0.01873
3965.39855	0.01865
3963.33860	0.01863
3961.27865	0.01871
3959.21870	0.01880
3957.15876	0.01879
3955.09881	0.01863
3953.03886	0.01844
3950.97892	0.01846
3948.91897	0.01866
3946.85902	0.01878
3944.79907	0.01879
3942.73913	0.01881
3940.67918	0.01876
3938.61923	0.01865
3936.55928	0.01861
3934.49934	0.01864
3932.43939	0.01876
3930.37944	0.01887
3928.31950	0.01878
3926.25955	0.01860
3924.19960	0.01856
3922.13965	0.01857
3920.07971	0.01855
3918.01976	0.01861
3915.95981	0.01863
3913.89986	0.01848
3911.83992	0.01834
3909.77997	0.01830
3907.72002	0.01826
3905.66008	0.01832
3903.60013	0.01850
3901.54018	0.01863
3899.48023	0.01872
3897.42029	0.01873
3895.36034	0.01858
3893.30039	0.01845
3891.24044	0.01853
3889.18050	0.01848
3887.12055	0.01835
3885.06060	0.01846
3883.00065	0.01850
3880.94071	0.01854
3878.88076	0.01865
3876.82081	0.01853
3874.76087	0.01848
3872.70092	0.01853
3870.64097	0.01859
3868.58102	0.01866
3866.52108	0.01859
3864.46113	0.01863
3862.40118	0.01872
3860.34123	0.01859
3858.28129	0.01833
3856.22134	0.01809
3854.16139	0.01831
3852.10145	0.01894
3850.04150	0.01887
3847.98155	0.01851
3845.92160	0.01830
3843.86166	0.01830
3841.80171	0.01833
3839.74176	0.01835
3837.68181	0.01853
3835.62187	0.01864
3833.56192	0.01858
3831.50197	0.01847
3829.44203	0.01833
3827.38208	0.01828
3825.32213	0.01825
3823.26218	0.01820
3821.20224	0.01841
3819.14229	0.01847
3817.08234	0.01837
3815.02239	0.01850
3812.96245	0.01837
3810.90250	0.01808
3808.84255	0.01808
3806.78260	0.01836
3804.72266	0.01837
3802.66271	0.01820
3800.60276	0.01826
3798.54282	0.01823
3796.48287	0.01821
3794.42292	0.01818
3792.36297	0.01808
3790.30303	0.01810
3788.24308	0.01812
3786.18313	0.01807
3784.12318	0.01805
3782.06324	0.01803
3780.00329	0.01804
3777.94334	0.01810
3775.88340	0.01812
3773.82345	0.01804
3771.76350	0.01796
3769.70355	0.01810
3767.64361	0.01829
3765.58366	0.01835
3763.52371	0.01824
3761.46376	0.01806
3759.40382	0.01808
3757.34387	0.01804
3755.28392	0.01780
3753.22398	0.01772
3751.16403	0.01811
3749.10408	0.01849
3747.04413	0.01841
3744.98419	0.01845
3742.92424	0.01847
3740.86429	0.01806
3738.80434	0.01772
3736.74440	0.01781
3734.68445	0.01832
3732.62450	0.01861
3730.56455	0.01831
3728.50461	0.01784
3726.44466	0.01762
3724.38471	0.01769
3722.32477	0.01784
3720.26482	0.01789
3718.20487	0.01775
3716.14492	0.01754
3714.08498	0.01750
3712.02503	0.01792
3709.96508	0.01830
3707.90513	0.01801
3705.84519	0.01762
3703.78524	0.01756
3701.72529	0.01787
3699.66535	0.01804
3697.60540	0.01793
3695.54545	0.01781
3693.48550	0.01774
3691.42556	0.01780
3689.36561	0.01815
3687.30566	0.01827
3685.24571	0.01803
3683.18577	0.01782
3681.12582	0.01769
3679.06587	0.01749
3677.00593	0.01750
3674.94598	0.01793
3672.88603	0.01802
3670.82608	0.01796
3668.76614	0.01808
3666.70619	0.01795
3664.64624	0.01771
3662.58629	0.01761
3660.52635	0.01758
3658.46640	0.01762
3656.40645	0.01782
3654.34651	0.01783
3652.28656	0.01763
3650.22661	0.01782
3648.16666	0.01829
3646.10672	0.01823
3644.04677	0.01797
3641.98682	0.01794
3639.92687	0.01803
3637.86693	0.01798
3635.80698	0.01786
3633.74703	0.01781
3631.68708	0.01775
3629.62714	0.01790
3627.56719	0.01828
3625.50724	0.01820
3623.44730	0.01792
3621.38735	0.01789
3619.32740	0.01812
3617.26745	0.01817
3615.20751	0.01809
3613.14756	0.01816
3611.08761	0.01825
3609.02766	0.01827
3606.96772	0.01819
3604.90777	0.01798
3602.84782	0.01783
3600.78788	0.01781
3598.72793	0.01783
3596.66798	0.01786
3594.60803	0.01793
3592.54809	0.01786
3590.48814	0.01770
3588.42819	0.01776
3586.36824	0.01793
3584.30830	0.01783
3582.24835	0.01768
3580.18840	0.01765
3578.12846	0.01768
3576.06851	0.01766
3574.00856	0.01762
3571.94861	0.01761
3569.88867	0.01760
3567.82872	0.01778
3565.76877	0.01802
3563.70882	0.01795
3561.64888	0.01781
3559.58893	0.01775
3557.52898	0.01769
3555.46903	0.01762
3553.40909	0.01761
3551.34914	0.01765
3549.28919	0.01772
3547.22925	0.01789
3545.16930	0.01809
3543.10935	0.01813
3541.04940	0.01802
3538.98946	0.01795
3536.92951	0.01795
3534.86956	0.01788
3532.80961	0.01778
3530.74967	0.01782
3528.68972	0.01798
3526.62977	0.01814
3524.56983	0.01822
3522.50988	0.01819
3520.44993	0.01809
3518.38998	0.01809
3516.33004	0.01811
3514.27009	0.01804
3512.21014	0.01797
3510.15019	0.01805
3508.09025	0.01822
3506.03030	0.01827
3503.97035	0.01817
3501.91041	0.01809
3499.85046	0.01809
3497.79051	0.01813
3495.73056	0.01814
3493.67062	0.01806
3491.61067	0.01793
3489.55072	0.01790
3487.49077	0.01794
3485.43083	0.01802
3483.37088	0.01819
3481.31093	0.01834
3479.25098	0.01831
3477.19104	0.01821
3475.13109	0.01821
3473.07114	0.01824
3471.01120	0.01822
3468.95125	0.01817
3466.89130	0.01815
3464.83135	0.01821
3462.77141	0.01834
3460.71146	0.01840
3458.65151	0.01839
3456.59156	0.01842
3454.53162	0.01848
3452.47167	0.01848
3450.41172	0.01842
3448.35178	0.01840
3446.29183	0.01841
3444.23188	0.01841
3442.17193	0.01843
3440.11199	0.01845
3438.05204	0.01841
3435.99209	0.01833
3433.93214	0.01830
3431.87220	0.01828
3429.81225	0.01827
3427.75230	0.01831
3425.69236	0.01837
3423.63241	0.01843
3421.57246	0.01844
3419.51251	0.01839
3417.45257	0.01834
3415.39262	0.01835
3413.33267	0.01843
3411.27272	0.01852
3409.21278	0.01853
3407.15283	0.01842
3405.09288	0.01832
3403.03293	0.01839
3400.97299	0.01846
3398.91304	0.01841
3396.85309	0.01832
3394.79315	0.01827
3392.73320	0.01827
3390.67325	0.01832
3388.61330	0.01842
3386.55336	0.01849
3384.49341	0.01843
3382.43346	0.01834
3380.37351	0.01836
3378.31357	0.01837
3376.25362	0.01836
3374.19367	0.01842
3372.13373	0.01842
3370.07378	0.01833
3368.01383	0.01827
3365.95388	0.01829
3363.89394	0.01836
3361.83399	0.01842
3359.77404	0.01838
3357.71409	0.01831
3355.65415	0.01832
3353.59420	0.01834
3351.53425	0.01832
3349.47431	0.01835
3347.41436	0.01845
3345.35441	0.01850
3343.29446	0.01847
3341.23452	0.01846
3339.17457	0.01846
3337.11462	0.01848
3335.05467	0.01848
3332.99473	0.01848
3330.93478	0.01845
3328.87483	0.01835
3326.81488	0.01821
3324.75494	0.01820
3322.69499	0.01834
3320.63504	0.01843
3318.57510	0.01843
3316.51515	0.01843
3314.45520	0.01838
3312.39525	0.01832
3310.33531	0.01837
3308.27536	0.01846
3306.21541	0.01845
3304.15546	0.01837
3302.09552	0.01833
3300.03557	0.01829
3297.97562	0.01823
3295.91568	0.01818
3293.85573	0.01822
3291.79578	0.01832
3289.73583	0.01836
3287.67589	0.01833
3285.61594	0.01832
3283.55599	0.01830
3281.49604	0.01823
3279.43610	0.01825
3277.37615	0.01833
3275.31620	0.01833
3273.25626	0.01829
3271.19631	0.01829
3269.13636	0.01829
3267.07641	0.01826
3265.01647	0.01823
3262.95652	0.01822
3260.89657	0.01821
3258.83662	0.01825
3256.77668	0.01830
3254.71673	0.01831
3252.65678	0.01824
3250.59683	0.01816
3248.53689	0.01813
3246.47694	0.01814
3244.41699	0.01812
3242.35705	0.01808
3240.29710	0.01812
3238.23715	0.01814
3236.17720	0.01809
3234.11726	0.01808
3232.05731	0.01806
3229.99736	0.01803
3227.93741	0.01802
3225.87747	0.01799
3223.81752	0.01796
3221.75757	0.01799
3219.69763	0.01803
3217.63768	0.01803
3215.57773	0.01801
3213.51778	0.01800
3211.45784	0.01795
3209.39789	0.01786
3207.33794	0.01788
3205.27799	0.01793
3203.21805	0.01788
3201.15810	0.01779
3199.09815	0.01780
3197.03821	0.01784
3194.97826	0.01784
3192.91831	0.01780
3190.85836	0.01774
3188.79842	0.01771
3186.73847	0.01773
3184.67852	0.01777
3182.61857	0.01781
3180.55863	0.01782
3178.49868	0.01783
3176.43873	0.01784
3174.37878	0.01780
3172.31884	0.01775
3170.25889	0.01773
3168.19894	0.01772
3166.13900	0.01768
3164.07905	0.01768
3162.01910	0.01773
3159.95915	0.01778
3157.89921	0.01773
3155.83926	0.01762
3153.77931	0.01756
3151.71936	0.01757
3149.65942	0.01759
3147.59947	0.01762
3145.53952	0.01766
3143.47958	0.01764
3141.41963	0.01758
3139.35968	0.01749
3137.29973	0.01742
3135.23979	0.01745
3133.17984	0.01752
3131.11989	0.01747
3129.05994	0.01739
3127.00000	0.01739
3124.94005	0.01740
3122.88010	0.01738
3120.82016	0.01736
3118.76021	0.01737
3116.70026	0.01741
3114.64031	0.01745
3112.58037	0.01744
3110.52042	0.01740
3108.46047	0.01736
3106.40052	0.01737
3104.34058	0.01741
3102.28063	0.01742
3100.22068	0.01743
3098.16073	0.01744
3096.10079	0.01744
3094.04084	0.01745
3091.98089	0.01747
3089.92095	0.01743
3087.86100	0.01734
3085.80105	0.01728
3083.74110	0.01730
3081.68116	0.01735
3079.62121	0.01737
3077.56126	0.01740
3075.50131	0.01746
3073.44137	0.01745
3071.38142	0.01730
3069.32147	0.01721
3067.26153	0.01730
3065.20158	0.01738
3063.14163	0.01733
3061.08168	0.01727
3059.02174	0.01727
3056.96179	0.01729
3054.90184	0.01724
3052.84189	0.01719
3050.78195	0.01723
3048.72200	0.01727
3046.66205	0.01723
3044.60211	0.01716
3042.54216	0.01710
3040.48221	0.01711
3038.42226	0.01716
3036.36232	0.01722
3034.30237	0.01721
3032.24242	0.01714
3030.18247	0.01711
3028.12253	0.01712
3026.06258	0.01715
3024.00263	0.01721
3021.94268	0.01725
3019.88274	0.01724
3017.82279	0.01723
3015.76284	0.01720
3013.70290	0.01714
3011.64295	0.01709
3009.58300	0.01704
3007.52305	0.01702
3005.46311	0.01709
3003.40316	0.01719
3001.34321	0.01718
2999.28326	0.01715
2997.22332	0.01715
2995.16337	0.01716
2993.10342	0.01717
2991.04348	0.01716
2988.98353	0.01713
2986.92358	0.01711
2984.86363	0.01711
2982.80369	0.01713
2980.74374	0.01715
2978.68379	0.01713
2976.62384	0.01709
2974.56390	0.01707
2972.50395	0.01705
2970.44400	0.01705
2968.38406	0.01707
2966.32411	0.01706
2964.26416	0.01708
2962.20421	0.01710
2960.14427	0.01711
2958.08432	0.01709
2956.02437	0.01704
2953.96442	0.01700
2951.90448	0.01701
2949.84453	0.01704
2947.78458	0.01706
2945.72463	0.01705
2943.66469	0.01702
2941.60474	0.01697
2939.54479	0.01699
2937.48485	0.01707
2935.42490	0.01713
2933.36495	0.01715
2931.30500	0.01715
2929.24506	0.01717
2927.18511	0.01719
2925.12516	0.01718
2923.06521	0.01719
2921.00527	0.01728
2918.94532	0.01739
2916.88537	0.01740
2914.82543	0.01729
2912.76548	0.01720
2910.70553	0.01719
2908.64558	0.01718
2906.58564	0.01713
2904.52569	0.01708
2902.46574	0.01705
2900.40579	0.01703
2898.34585	0.01703
2896.28590	0.01700
2894.22595	0.01694
2892.16601	0.01690
2890.10606	0.01692
2888.04611	0.01696
2885.98616	0.01700
2883.92622	0.01698
2881.86627	0.01693
2879.80632	0.01688
2877.74637	0.01683
2875.68643	0.01680
2873.62648	0.01676
2871.56653	0.01670
2869.50658	0.01669
2867.44664	0.01675
2865.38669	0.01678
2863.32674	0.01680
2861.26680	0.01678
2859.20685	0.01673
2857.14690	0.01674
2855.08695	0.01682
2853.02701	0.01691
2850.96706	0.01699
2848.90711	0.01703
2846.84716	0.01698
2844.78722	0.01691
2842.72727	0.01688
2840.66732	0.01684
2838.60738	0.01677
2836.54743	0.01668
2834.48748	0.01661
2832.42753	0.01657
2830.36759	0.01662
2828.30764	0.01666
2826.24769	0.01658
2824.18774	0.01653
2822.12780	0.01655
2820.06785	0.01655
2818.00790	0.01655
2815.94796	0.01657
2813.88801	0.01655
2811.82806	0.01651
2809.76811	0.01651
2807.70817	0.01655
2805.64822	0.01657
2803.58827	0.01654
2801.52832	0.01647
2799.46838	0.01642
2797.40843	0.01641
2795.34848	0.01641
2793.28853	0.01639
2791.22859	0.01632
2789.16864	0.01626
2787.10869	0.01629
2785.04875	0.01635
2782.98880	0.01637
2780.92885	0.01637
2778.86890	0.01636
2776.80896	0.01633
2774.74901	0.01630
2772.68906	0.01628
2770.62911	0.01626
2768.56917	0.01624
2766.50922	0.01626
2764.44927	0.01628
2762.38933	0.01624
2760.32938	0.01619
2758.26943	0.01618
2756.20948	0.01617
2754.14954	0.01617
2752.08959	0.01623
2750.02964	0.01627
2747.96969	0.01625
2745.90975	0.01622
2743.84980	0.01620
2741.78985	0.01620
2739.72991	0.01619
2737.66996	0.01614
2735.61001	0.01612
2733.55006	0.01612
2731.49012	0.01611
2729.43017	0.01607
2727.37022	0.01602
2725.31027	0.01598
2723.25033	0.01598
2721.19038	0.01602
2719.13043	0.01608
2717.07048	0.01611
2715.01054	0.01613
2712.95059	0.01614
2710.89064	0.01613
2708.83070	0.01612
2706.77075	0.01609
2704.71080	0.01603
2702.65085	0.01598
2700.59091	0.01597
2698.53096	0.01598
2696.47101	0.01600
2694.41106	0.01601
2692.35112	0.01597
2690.29117	0.01596
2688.23122	0.01597
2686.17128	0.01595
2684.11133	0.01591
2682.05138	0.01591
2679.99143	0.01591
2677.93149	0.01588
2675.87154	0.01585
2673.81159	0.01586
2671.75164	0.01592
2669.69170	0.01599
2667.63175	0.01608
2665.57180	0.01622
2663.51186	0.01638
2661.45191	0.01650
2659.39196	0.01658
2657.33201	0.01666
2655.27207	0.01672
2653.21212	0.01677
2651.15217	0.01680
2649.09222	0.01683
2647.03228	0.01684
2644.97233	0.01680
2642.91238	0.01671
2640.85243	0.01661
2638.79249	0.01653
2636.73254	0.01648
2634.67259	0.01645
2632.61265	0.01638
2630.55270	0.01630
2628.49275	0.01624
2626.43280	0.01621
2624.37286	0.01618
2622.31291	0.01613
2620.25296	0.01605
2618.19301	0.01599
2616.13307	0.01598
2614.07312	0.01597
2612.01317	0.01590
2609.95323	0.01581
2607.89328	0.01577
2605.83333	0.01577
2603.77338	0.01580
2601.71344	0.01582
2599.65349	0.01575
2597.59354	0.01558
2595.53359	0.01543
2593.47365	0.01539
2591.41370	0.01536
2589.35375	0.01530
2587.29381	0.01521
2585.23386	0.01512
2583.17391	0.01508
2581.11396	0.01513
2579.05402	0.01516
2576.99407	0.01510
2574.93412	0.01503
2572.87417	0.01503
2570.81423	0.01509
2568.75428	0.01513
2566.69433	0.01507
2564.63438	0.01492
2562.57444	0.01485
2560.51449	0.01487
2558.45454	0.01482
2556.39460	0.01469
2554.33465	0.01462
2552.27470	0.01468
2550.21475	0.01473
2548.15481	0.01467
2546.09486	0.01451
2544.03491	0.01435
2541.97496	0.01429
2539.91502	0.01438
2537.85507	0.01458
2535.79512	0.01471
2533.73518	0.01468
2531.67523	0.01457
2529.61528	0.01444
2527.55533	0.01438
2525.49539	0.01442
2523.43544	0.01446
2521.37549	0.01446
2519.31554	0.01444
2517.25560	0.01439
2515.19565	0.01436
2513.13570	0.01434
2511.07576	0.01427
2509.01581	0.01418
2506.95586	0.01417
2504.89591	0.01418
2502.83597	0.01417
2500.77602	0.01421
2498.71607	0.01424
2496.65612	0.01422
2494.59618	0.01420
2492.53623	0.01418
2490.47628	0.01414
2488.41633	0.01411
2486.35639	0.01409
2484.29644	0.01411
2482.23649	0.01410
2480.17655	0.01404
2478.11660	0.01399
2476.05665	0.01400
2473.99670	0.01406
2471.93676	0.01410
2469.87681	0.01405
2467.81686	0.01395
2465.75691	0.01390
2463.69697	0.01393
2461.63702	0.01398
2459.57707	0.01406
2457.51713	0.01422
2455.45718	0.01431
2453.39723	0.01422
2451.33728	0.01409
2449.27734	0.01401
2447.21739	0.01392
2445.15744	0.01386
2443.09749	0.01377
2441.03755	0.01369
2438.97760	0.01366
2436.91765	0.01364
2434.85771	0.01368
2432.79776	0.01374
2430.73781	0.01364
2428.67786	0.01346
2426.61792	0.01335
2424.55797	0.01332
2422.49802	0.01337
2420.43807	0.01340
2418.37813	0.01338
2416.31818	0.01332
2414.25823	0.01322
2412.19828	0.01317
2410.13834	0.01309
2408.07839	0.01295
2406.01844	0.01286
2403.95850	0.01283
2401.89855	0.01282
2399.83860	0.01283
2397.77865	0.01281
2395.71871	0.01278
2393.65876	0.01283
2391.59881	0.01290
2389.53886	0.01289
2387.47892	0.01283
2385.41897	0.01278
2383.35902	0.01274
2381.29908	0.01273
2379.23913	0.01279
2377.17918	0.01288
2375.11923	0.01293
2373.05929	0.01293
2370.99934	0.01287
2368.93939	0.01283
2366.87944	0.01293
2364.81950	0.01321
2362.75955	0.01355
2360.69960	0.01386
2358.63966	0.01402
2356.57971	0.01392
2354.51976	0.01380
2352.45981	0.01378
2350.39987	0.01375
2348.33992	0.01372
2346.27997	0.01375
2344.22002	0.01388
2342.16008	0.01393
2340.10013	0.01387
2338.04018	0.01390
2335.98023	0.01401
2333.92029	0.01411
2331.86034	0.01421
2329.80039	0.01457
2327.74045	0.01556
2325.68050	0.01660
2323.62055	0.01669
2321.56060	0.01606
2319.50066	0.01555
2317.44071	0.01530
2315.38076	0.01516
2313.32081	0.01507
2311.26087	0.01495
2309.20092	0.01487
2307.14097	0.01483
2305.08103	0.01472
2303.02108	0.01462
2300.96113	0.01459
2298.90118	0.01463
2296.84124	0.01484
2294.78129	0.01517
2292.72134	0.01544
2290.66139	0.01554
2288.60145	0.01556
2286.54150	0.01553
2284.48155	0.01535
2282.42161	0.01503
2280.36166	0.01468
2278.30171	0.01441
2276.24176	0.01421
2274.18182	0.01407
2272.12187	0.01396
2270.06192	0.01378
2268.00197	0.01350
2265.94203	0.01327
2263.88208	0.01327
2261.82213	0.01357
2259.76218	0.01394
2257.70224	0.01384
2255.64229	0.01320
2253.58234	0.01265
2251.52240	0.01261
2249.46245	0.01294
2247.40250	0.01322
2245.34255	0.01327
2243.28261	0.01321
2241.22266	0.01313
2239.16271	0.01315
2237.10276	0.01318
2235.04282	0.01298
2232.98287	0.01271
2230.92292	0.01273
2228.86298	0.01282
2226.80303	0.01275
2224.74308	0.01270
2222.68313	0.01270
2220.62319	0.01254
2218.56324	0.01219
2216.50329	0.01197
2214.44334	0.01190
2212.38340	0.01183
2210.32345	0.01192
2208.26350	0.01227
2206.20356	0.01265
2204.14361	0.01283
2202.08366	0.01265
2200.02371	0.01240
2197.96377	0.01247
2195.90382	0.01263
2193.84387	0.01266
2191.78392	0.01266
2189.72398	0.01261
2187.66403	0.01252
2185.60408	0.01240
2183.54413	0.01198
2181.48419	0.01161
2179.42424	0.01157
2177.36429	0.01115
2175.30435	0.01077
2173.24440	0.01138
2171.18445	0.01239
2169.12450	0.01311
2167.06456	0.01359
2165.00461	0.01399
2162.94466	0.01346
2160.88471	0.01011
2158.82477	0.00587
2156.76482	0.00473
2154.70487	0.00563
2152.64493	0.00671
2150.58498	0.00759
2148.52503	0.00780
2146.46508	0.00769
2144.40514	0.00778
2142.34519	0.00796
2140.28524	0.00799
2138.22529	0.00769
2136.16535	0.00710
2134.10540	0.00683
2132.04545	0.00717
2129.98551	0.00779
2127.92556	0.00846
2125.86561	0.00920
2123.80566	0.00988
2121.74572	0.01031
2119.68577	0.01068
2117.62582	0.01119
2115.56587	0.01159
2113.50593	0.01162
2111.44598	0.01149
2109.38603	0.01146
2107.32608	0.01143
2105.26614	0.01133
2103.20619	0.01134
2101.14624	0.01137
2099.08630	0.01129
2097.02635	0.01098
2094.96640	0.01059
2092.90645	0.01059
2090.84651	0.01100
2088.78656	0.01139
2086.72661	0.01165
2084.66666	0.01191
2082.60672	0.01214
2080.54677	0.01224
2078.48682	0.01219
2076.42688	0.01209
2074.36693	0.01209
2072.30698	0.01212
2070.24703	0.01190
2068.18709	0.01156
2066.12714	0.01136
2064.06719	0.01126
2062.00724	0.01125
2059.94730	0.01141
2057.88735	0.01171
2055.82740	0.01197
2053.76746	0.01252
2051.70751	0.01324
2049.64756	0.01287
2047.58761	0.01189
2045.52767	0.01152
2043.46772	0.01160
2041.40777	0.01183
2039.34782	0.01200
2037.28788	0.01180
2035.22793	0.01118
2033.16798	0.01064
2031.10803	0.01024
2029.04809	0.00976
2026.98814	0.00960
2024.92819	0.00989
2022.86825	0.01023
2020.80830	0.01026
2018.74835	0.01013
2016.68840	0.00992
2014.62846	0.00955
2012.56851	0.00951
2010.50856	0.00974
2008.44861	0.00942
2006.38867	0.00895
2004.32872	0.00933
2002.26877	0.01016
2000.20883	0.01062
1998.14888	0.01045
1996.08893	0.01023
1994.02898	0.01068
1991.96904	0.01140
1989.90909	0.01172
1987.84914	0.01186
1985.78919	0.01221
1983.72925	0.01301
1981.66930	0.01372
1979.60935	0.01284
1977.54941	0.01060
1975.48946	0.00922
1973.42951	0.00906
1971.36956	0.00906
1969.30962	0.00892
1967.24967	0.00895
1965.18972	0.00936
1963.12977	0.00960
1961.06983	0.00919
1959.00988	0.00881
1956.94993	0.00901
1954.88998	0.00942
1952.83004	0.00967
1950.77009	0.00968
1948.71014	0.00951
1946.65020	0.00937
1944.59025	0.00942
1942.53030	0.00965
1940.47035	0.00984
1938.41041	0.00993
1936.35046	0.00996
1934.29051	0.00988
1932.23056	0.00986
1930.17062	0.00997
1928.11067	0.01004
1926.05072	0.01007
1923.99078	0.01021
1921.93083	0.01039
1919.87088	0.01045
1917.81093	0.01044
1915.75099	0.01057
1913.69104	0.01082
1911.63109	0.01104
1909.57114	0.01115
1907.51120	0.01116
1905.45125	0.01121
1903.39130	0.01133
1901.33136	0.01140
1899.27141	0.01139
1897.21146	0.01129
1895.15151	0.01121
1893.09157	0.01129
1891.03162	0.01144
1888.97167	0.01157
1886.91172	0.01166
1884.85178	0.01174
1882.79183	0.01186
1880.73188	0.01197
1878.67193	0.01205
1876.61199	0.01209
1874.55204	0.01205
1872.49209	0.01204
1870.43215	0.01218
1868.37220	0.01226
1866.31225	0.01212
1864.25230	0.01199
1862.19236	0.01198
1860.13241	0.01199
1858.07246	0.01192
1856.01251	0.01182
1853.95257	0.01175
1851.89262	0.01168
1849.83267	0.01154
1847.77273	0.01143
1845.71278	0.01140
1843.65283	0.01138
1841.59288	0.01131
1839.53294	0.01128
1837.47299	0.01126
1835.41304	0.01122
1833.35309	0.01121
1831.29315	0.01127
1829.23320	0.01135
1827.17325	0.01136
1825.11331	0.01136
1823.05336	0.01136
1820.99341	0.01120
1818.93346	0.01090
1816.87352	0.01074
1814.81357	0.01089
1812.75362	0.01120
1810.69367	0.01147
1808.63373	0.01162
1806.57378	0.01169
1804.51383	0.01171
1802.45388	0.01176
1800.39394	0.01186
1798.33399	0.01190
1796.27404	0.01189
1794.21410	0.01191
1792.15415	0.01203
1790.09420	0.01211
1788.03425	0.01211
1785.97431	0.01209
1783.91436	0.01205
1781.85441	0.01200
1779.79446	0.01193
1777.73452	0.01187
1775.67457	0.01182
1773.61462	0.01183
1771.55468	0.01189
1769.49473	0.01188
1767.43478	0.01186
1765.37483	0.01186
1763.31489	0.01192
1761.25494	0.01200
1759.19499	0.01202
1757.13504	0.01204
1755.07510	0.01202
1753.01515	0.01199
1750.95520	0.01207
1748.89526	0.01220
1746.83531	0.01219
1744.77536	0.01211
1742.71541	0.01207
1740.65547	0.01212
1738.59552	0.01221
1736.53557	0.01227
1734.47562	0.01237
1732.41568	0.01243
1730.35573	0.01240
1728.29578	0.01239
1726.23583	0.01238
1724.17589	0.01238
1722.11594	0.01241
1720.05599	0.01250
1717.99605	0.01267
1715.93610	0.01283
1713.87615	0.01289
1711.81620	0.01289
1709.75626	0.01286
1707.69631	0.01289
1705.63636	0.01302
1703.57641	0.01314
1701.51647	0.01334
1699.45652	0.01362
1697.39657	0.01371
1695.33663	0.01365
1693.27668	0.01357
1691.21673	0.01364
1689.15678	0.01382
1687.09684	0.01395
1685.03689	0.01410
1682.97694	0.01419
1680.91699	0.01413
1678.85705	0.01412
1676.79710	0.01421
1674.73715	0.01432
1672.67721	0.01434
1670.61726	0.01437
1668.55731	0.01438
1666.49736	0.01435
1664.43742	0.01440
1662.37747	0.01449
1660.31752	0.01452
1658.25757	0.01456
1656.19763	0.01469
1654.13768	0.01488
1652.07773	0.01498
1650.01778	0.01499
1647.95784	0.01509
1645.89789	0.01509
1643.83794	0.01495
1641.77800	0.01491
1639.71805	0.01502
1637.65810	0.01523
1635.59815	0.01539
1633.53821	0.01537
1631.47826	0.01536
1629.41831	0.01550
1627.35836	0.01565
1625.29842	0.01571
1623.23847	0.01574
1621.17852	0.01577
1619.11858	0.01586
1617.05863	0.01599
1614.99868	0.01601
1612.93873	0.01594
1610.87879	0.01590
1608.81884	0.01589
1606.75889	0.01588
1604.69894	0.01587
1602.63900	0.01586
1600.57905	0.01581
1598.51910	0.01575
1596.45916	0.01570
1594.39921	0.01566
1592.33926	0.01559
1590.27931	0.01551
1588.21937	0.01547
1586.15942	0.01540
1584.09947	0.01531
1582.03952	0.01523
1579.97958	0.01520
1577.91963	0.01522
1575.85968	0.01525
1573.79973	0.01518
1571.73979	0.01510
1569.67984	0.01502
1567.61989	0.01490
1565.55995	0.01480
1563.50000	0.01472
1561.44005	0.01471
1559.38010	0.01479
1557.32016	0.01472
1555.26021	0.01459
1553.20026	0.01447
1551.14031	0.01436
1549.08037	0.01432
1547.02042	0.01434
1544.96047	0.01442
1542.90053	0.01451
1540.84058	0.01453
1538.78063	0.01441
1536.72068	0.01428
1534.66074	0.01426
1532.60079	0.01427
1530.54084	0.01421
1528.48089	0.01418
1526.42095	0.01418
1524.36100	0.01417
1522.30105	0.01418
1520.24111	0.01414
1518.18116	0.01401
1516.12121	0.01390
1514.06126	0.01381
1512.00132	0.01376
1509.94137	0.01381
1507.88142	0.01397
1505.82147	0.01393
1503.76153	0.01368
1501.70158	0.01351
1499.64163	0.01348
1497.58168	0.01355
1495.52174	0.01354
1493.46179	0.01348
1491.40184	0.01354
1489.34190	0.01368
1487.28195	0.01368
1485.22200	0.01358
1483.16205	0.01349
1481.10211	0.01346
1479.04216	0.01347
1476.98221	0.01354
1474.92226	0.01370
1472.86232	0.01387
1470.80237	0.01386
1468.74242	0.01376
1466.68248	0.01373
1464.62253	0.01374
1462.56258	0.01373
1460.50263	0.01379
1458.44269	0.01401
1456.38274	0.01415
1454.32279	0.01401
1452.26284	0.01391
1450.20290	0.01390
1448.14295	0.01390
1446.08300	0.01390
1444.02306	0.01389
1441.96311	0.01388
1439.90316	0.01389
1437.84321	0.01396
1435.78327	0.01404
1433.72332	0.01405
1431.66337	0.01406
1429.60342	0.01402
1427.54348	0.01396
1425.48353	0.01397
1423.42358	0.01404
1421.36363	0.01410
1419.30369	0.01413
1417.24374	0.01409
1415.18379	0.01404
1413.12385	0.01403
1411.06390	0.01399
1409.00395	0.01390
1406.94400	0.01383
1404.88406	0.01381
1402.82411	0.01382
1400.76416	0.01386
1398.70421	0.01390
1396.64427	0.01390
1394.58432	0.01385
1392.52437	0.01376
1390.46443	0.01368
1388.40448	0.01368
1386.34453	0.01370
1384.28458	0.01369
1382.22464	0.01370
1380.16469	0.01372
1378.10474	0.01375
1376.04479	0.01377
1373.98485	0.01377
1371.92490	0.01373
1369.86495	0.01369
1367.80501	0.01366
1365.74506	0.01365
1363.68511	0.01366
1361.62516	0.01363
1359.56522	0.01358
1357.50527	0.01353
1355.44532	0.01346
1353.38537	0.01341
1351.32543	0.01341
1349.26548	0.01342
1347.20553	0.01341
1345.14558	0.01340
1343.08564	0.01340
1341.02569	0.01344
1338.96574	0.01349
1336.90580	0.01349
1334.84585	0.01347
1332.78590	0.01347
1330.72595	0.01348
1328.66601	0.01347
1326.60606	0.01347
1324.54611	0.01350
1322.48616	0.01356
1320.42622	0.01364
1318.36627	0.01373
1316.30632	0.01378
1314.24638	0.01381
1312.18643	0.01385
1310.12648	0.01386
1308.06653	0.01389
1306.00659	0.01396
1303.94664	0.01404
1301.88669	0.01415
1299.82674	0.01430
1297.76680	0.01443
1295.70685	0.01452
1293.64690	0.01460
1291.58696	0.01473
1289.52701	0.01489
1287.46706	0.01509
1285.40711	0.01531
1283.34717	0.01554
1281.28722	0.01574
1279.22727	0.01592
1277.16732	0.01607
1275.10738	0.01618
1273.04743	0.01627
1270.98748	0.01642
1268.92753	0.01659
1266.86759	0.01674
1264.80764	0.01692
1262.74769	0.01713
1260.68775	0.01729
1258.62780	0.01743
1256.56785	0.01764
1254.50790	0.01794
1252.44796	0.01833
1250.38801	0.01877
1248.32806	0.01920
1246.26811	0.01959
1244.20817	0.01997
1242.14822	0.02037
1240.08827	0.02081
1238.02833	0.02127
1235.96838	0.02176
1233.90843	0.02231
1231.84848	0.02289
1229.78854	0.02356
1227.72859	0.02436
1225.66864	0.02539
1223.60869	0.02662
1221.54875	0.02802
1219.48880	0.02960
1217.42885	0.03135
1215.36891	0.03315
1213.30896	0.03498
1211.24901	0.03685
1209.18906	0.03869
1207.12912	0.04047
1205.06917	0.04222
1203.00922	0.04393
1200.94927	0.04554
1198.88933	0.04704
1196.82938	0.04848
1194.76943	0.04990
1192.70949	0.05128
1190.64954	0.05261
1188.58959	0.05388
1186.52964	0.05515
1184.46970	0.05647
1182.40975	0.05781
1180.34980	0.05917
1178.28985	0.06067
1176.22991	0.06236
1174.16996	0.06425
1172.11001	0.06637
1170.05006	0.06877
1167.99012	0.07141
1165.93017	0.07403
1163.87022	0.07600
1161.81028	0.07646
1159.75033	0.07531
1157.69038	0.07367
1155.63043	0.07279
1153.57049	0.07303
1151.51054	0.07406
1149.45059	0.07555
1147.39064	0.07727
1145.33070	0.07912
1143.27075	0.08108
1141.21080	0.08316
1139.15086	0.08535
1137.09091	0.08766
1135.03096	0.09008
1132.97101	0.09264
1130.91107	0.09535
1128.85112	0.09822
1126.79117	0.10119
1124.73122	0.10417
1122.67128	0.10722
1120.61133	0.11039
1118.55138	0.11363
1116.49144	0.11687
1114.43149	0.12013
1112.37154	0.12345
1110.31159	0.12681
1108.25165	0.13028
1106.19170	0.13391
1104.13175	0.13766
1102.07180	0.14145
1100.01186	0.14535
1097.95191	0.14935
1095.89196	0.15329
1093.83201	0.15710
1091.77207	0.16078
1089.71212	0.16436
1087.65217	0.16771
1085.59223	0.17058
1083.53228	0.17297
1081.47233	0.17500
1079.41238	0.17659
1077.35244	0.17759
1075.29249	0.17802
1073.23254	0.17798
1071.17259	0.17776
1069.11265	0.17768
1067.05270	0.17789
1064.99275	0.17837
1062.93281	0.17882
1060.87286	0.17889
1058.81291	0.17846
1056.75296	0.17762
1054.69302	0.17639
1052.63307	0.17486
1050.57312	0.17322
1048.51317	0.17158
1046.45323	0.16994
1044.39328	0.16838
1042.33333	0.16702
1040.27339	0.16577
1038.21344	0.16449
1036.15349	0.16312
1034.09354	0.16164
1032.03360	0.15996
1029.97365	0.15808
1027.91370	0.15610
1025.85375	0.15408
1023.79381	0.15200
1021.73386	0.14990
1019.67391	0.14786
1017.61396	0.14592
1015.55402	0.14405
1013.49407	0.14219
1011.43412	0.14033
1009.37418	0.13847
1007.31423	0.13652
1005.25428	0.13449
1003.19433	0.13245
1001.13439	0.13038
999.07444	0.12827
997.01449	0.12612
994.95454	0.12400
992.89460	0.12193
990.83465	0.11984
988.77470	0.11769
986.71476	0.11557
984.65481	0.11354
982.59486	0.11145
980.53491	0.10926
978.47497	0.10707
976.41502	0.10497
974.35507	0.10290
972.29512	0.10079
970.23518	0.09874
968.17523	0.09678
966.11528	0.09487
964.05534	0.09299
961.99539	0.09113
959.93544	0.08924
957.87549	0.08742
955.81555	0.08574
953.75560	0.08411
951.69565	0.08250
949.63570	0.08095
947.57576	0.07944
945.51581	0.07797
943.45586	0.07655
941.39591	0.07522
939.33597	0.07397
937.27602	0.07271
935.21607	0.07141
933.15613	0.07010
931.09618	0.06881
929.03623	0.06753
926.97628	0.06631
924.91634	0.06517
922.85639	0.06407
920.79644	0.06299
918.73649	0.06198
916.67655	0.06106
914.61660	0.06013
912.55665	0.05914
910.49671	0.05808
908.43676	0.05691
906.37681	0.05563
904.31686	0.05427
902.25692	0.05300
900.19697	0.05196
898.13702	0.05101
896.07707	0.05007
894.01713	0.04909
891.95718	0.04806
889.89723	0.04712
887.83729	0.04632
885.77734	0.04553
883.71739	0.04465
881.65744	0.04373
879.59750	0.04287
877.53755	0.04209
875.47760	0.04136
873.41765	0.04065
871.35771	0.03992
869.29776	0.03916
867.23781	0.03841
865.17786	0.03773
863.11792	0.03712
861.05797	0.03650
858.99802	0.03587
856.93808	0.03532
854.87813	0.03477
852.81818	0.03427
850.75823	0.03386
848.69829	0.03341
846.63834	0.03286
844.57839	0.03233
842.51844	0.03198
840.45850	0.03188
838.39855	0.03182
836.33860	0.03166
834.27866	0.03153
832.21871	0.03153
830.15876	0.03168
828.09881	0.03192
826.03887	0.03218
823.97892	0.03253
821.91897	0.03311
819.85902	0.03402
817.79908	0.03537
815.73913	0.03739
813.67918	0.04036
811.61924	0.04467
809.55929	0.05093
807.49934	0.05961
805.43939	0.07042
803.37945	0.08229
801.31950	0.09371
799.25955	0.10302
797.19960	0.10861
795.13966	0.10986
793.07971	0.10799
791.01976	0.10516
788.95981	0.10335
786.89987	0.10388
784.83992	0.10726
782.77997	0.11292
780.72003	0.11903
778.66008	0.12285
776.60013	0.12244
774.54018	0.11792
772.48024	0.11094
770.42029	0.10325
768.36034	0.09595
766.30039	0.08940
764.24045	0.08363
762.18050	0.07862
760.12055	0.07430
758.06061	0.07055
756.00066	0.06729
753.94071	0.06447
751.88076	0.06211
749.82082	0.06002
747.76087	0.05807
745.70092	0.05632
743.64097	0.05480
741.58103	0.05346
739.52108	0.05229
737.46113	0.05120
735.40119	0.05012
733.34124	0.04920
731.28129	0.04849
729.22134	0.04782
727.16140	0.04720
725.10145	0.04664
723.04150	0.04611
720.98155	0.04568
718.92161	0.04535
716.86166	0.04505
714.80171	0.04486
712.74176	0.04495
710.68182	0.04533
708.62187	0.04596
706.56192	0.04692
704.50198	0.04843
702.44203	0.05094
700.38208	0.05523
698.32213	0.06138
696.26219	0.06708
694.20224	0.06878
692.14229	0.06586
690.08234	0.06086
688.02240	0.05612
685.96245	0.05241
683.90250	0.04970
681.84256	0.04769
679.78261	0.04603
677.72266	0.04464
675.66271	0.04349
673.60277	0.04258
671.54282	0.04200
669.48287	0.04151
667.42292	0.04060
665.36298	0.03970
663.30303	0.03910
661.24308	0.03854
659.18314	0.03802
657.12319	0.03760
655.06324	0.03728
653.00329	0.03698
650.94335	0.03660
648.88340	0.03624
646.82345	0.03591
644.76350	0.03560
642.70356	0.03534
640.64361	0.03510
638.58366	0.03478
636.52371	0.03441
634.46377	0.03404
632.40382	0.03374
630.34387	0.03359
628.28393	0.03350
626.22398	0.03327
624.16403	0.03295
622.10408	0.03274
620.04414	0.03253
617.98419	0.03233
615.92424	0.03226
613.86429	0.03228
611.80435	0.03225
609.74440	0.03205
607.68445	0.03179
605.62451	0.03174
603.56456	0.03179
601.50461	0.03177
599.44466	0.03173
597.38472	0.03175
595.32477	0.03178
593.26482	0.03176
591.20487	0.03176
589.14493	0.03183
587.08498	0.03192
585.02503	0.03189
582.96509	0.03178
580.90514	0.03178
578.84519	0.03191
576.78524	0.03198
574.72530	0.03197
572.66535	0.03211
570.60540	0.03241
568.54545	0.03262
566.48551	0.03270
564.42556	0.03281
562.36561	0.03307
560.30566	0.03355
558.24572	0.03417
556.18577	0.03485
554.12582	0.03559
552.06588	0.03667
550.00593	0.03823
547.94598	0.04012
545.88603	0.04263
543.82609	0.04603
541.76614	0.05019
539.70619	0.05486
537.64624	0.05980
535.58630	0.06508
533.52635	0.07062
531.46640	0.07593
529.40646	0.08066
527.34651	0.08508
525.28656	0.08936
523.22661	0.09296
521.16667	0.09567
519.10672	0.09769
517.04677	0.09931
514.98682	0.10058
512.92688	0.10097
510.86693	0.10020
508.80698	0.09861
506.74704	0.09691
504.68709	0.09626
502.62714	0.09765
500.56719	0.10112
498.50725	0.10571
496.44730	0.11070
494.38735	0.11582
492.32740	0.12122
490.26746	0.12666
488.20751	0.13210
486.14756	0.13805
484.08761	0.14463
482.02767	0.15175
479.96772	0.15918
477.90777	0.16658
475.84783	0.17390
473.78788	0.18179
471.72793	0.19045
469.66798	0.19848
467.60804	0.20604
465.54809	0.21388
463.48814	0.22130
461.42819	0.22776
459.36825	0.23302
457.30830	0.23695
455.24835	0.23863
453.18841	0.23794
451.12846	0.23507
449.06851	0.23018
447.00856	0.22338
444.94862	0.21466
442.88867	0.20426
440.82872	0.19327
438.76877	0.18318
436.70883	0.17354
434.64888	0.16399
432.58893	0.15488
430.52899	0.14643
428.46904	0.13922
426.40909	0.13281
424.34914	0.12673
422.28920	0.12167
420.22925	0.11640
418.16930	0.10971
416.10935	0.10494
414.04941	0.10157
411.98946	0.09777
409.92951	0.09349
407.86956	0.08995
405.80962	0.09061
403.74967	0.09888
401.68972	0.11531
399.62978	0.14043
