3996.29776	0.03475
3994.23781	0.03470
3992.17786	0.03468
3990.11791	0.03474
3988.05797	0.03481
3985.99802	0.03472
3983.93807	0.03462
3981.87813	0.03465
3979.81818	0.03468
3977.75823	0.03468
3975.69828	0.03474
3973.63834	0.03483
3971.57839	0.03481
3969.51844	0.03474
3967.45849	0.03474
3965.39855	0.03471
3963.33860	0.03466
3961.27865	0.03476
3959.21870	0.03484
3957.15876	0.03476
3955.09881	0.03455
3953.03886	0.03431
3950.97892	0.03427
3948.91897	0.03449
3946.85902	0.03462
3944.79907	0.03456
3942.73913	0.03470
3940.67918	0.03489
3938.61923	0.03471
3936.55928	0.03441
3934.49934	0.03426
3932.43939	0.03441
3930.37944	0.03468
3928.31950	0.03462
3926.25955	0.03442
3924.19960	0.03446
3922.13965	0.03447
3920.07971	0.03430
3918.01976	0.03434
3915.95981	0.03453
3913.89986	0.03447
3911.83992	0.03426
3909.77997	0.03407
3907.72002	0.03376
3905.66008	0.03350
3903.60013	0.03363
3901.54018	0.03400
3899.48023	0.03438
3897.42029	0.03449
3895.36034	0.03410
3893.30039	0.03384
3891.24044	0.03425
3889.18050	0.03434
3887.12055	0.03388
3885.06060	0.03400
3883.00065	0.03424
3880.94071	0.03435
3878.88076	0.03458
3876.82081	0.03421
3874.76087	0.03379
3872.70092	0.03376
3870.64097	0.03397
3868.58102	0.03429
3866.52108	0.03412
3864.46113	0.03410
3862.40118	0.03445
3860.34123	0.03429
3858.28129	0.03362
3856.22134	0.03286
3854.16139	0.03327
3852.10145	0.03506
3850.04150	0.03515
3847.98155	0.03426
3845.92160	0.03358
3843.86166	0.03344
3841.80171	0.03347
3839.74176	0.03350
3837.68181	0.03403
3835.62187	0.03443
3833.56192	0.03430
3831.50197	0.03413
3829.44203	0.03396
3827.38208	0.03385
3825.32213	0.03367
3823.26218	0.03317
3821.20224	0.03336
3819.14229	0.03394
3817.08234	0.03400
3815.02239	0.03434
3812.96245	0.03420
3810.90250	0.03342
3808.84255	0.03295
3806.78260	0.03330
3804.72266	0.03342
3802.66271	0.03321
3800.60276	0.03375
3798.54282	0.03402
3796.48287	0.03393
3794.42292	0.03394
3792.36297	0.03375
3790.30303	0.03352
3788.24308	0.03335
3786.18313	0.03320
3784.12318	0.03318
3782.06324	0.03314
3780.00329	0.03325
3777.94334	0.03358
3775.88340	0.03352
3773.82345	0.03308
3771.76350	0.03274
3769.70355	0.03296
3767.64361	0.03328
3765.58366	0.03335
3763.52371	0.03323
3761.46376	0.03285
3759.40382	0.03288
3757.34387	0.03317
3755.28392	0.03286
3753.22398	0.03241
3751.16403	0.03302
3749.10408	0.03388
3747.04413	0.03340
3744.98419	0.03327
3742.92424	0.03398
3740.86429	0.03362
3738.80434	0.03267
3736.74440	0.03239
3734.68445	0.03328
3732.62450	0.03410
3730.56455	0.03392
3728.50461	0.03330
3726.44466	0.03301
3724.38471	0.03314
3722.32477	0.03321
3720.26482	0.03319
3718.20487	0.03308
3716.14492	0.03273
3714.08498	0.03236
3712.02503	0.03273
3709.96508	0.03369
3707.90513	0.03386
3705.84519	0.03343
3703.78524	0.03324
3701.72529	0.03378
3699.66535	0.03435
3697.60540	0.03434
3695.54545	0.03407
3693.48550	0.03370
3691.42556	0.03357
3689.36561	0.03429
3687.30566	0.03494
3685.24571	0.03460
3683.18577	0.03398
3681.12582	0.03352
3679.06587	0.03310
3677.00593	0.03309
3674.94598	0.03406
3672.88603	0.03422
3670.82608	0.03388
3668.76614	0.03446
3666.70619	0.03471
3664.64624	0.03437
3662.58629	0.03413
3660.52635	0.03402
3658.46640	0.03396
3656.40645	0.03427
3654.34651	0.03434
3652.28656	0.03377
3650.22661	0.03389
3648.16666	0.03522
3646.10672	0.03565
3644.04677	0.03524
3641.98682	0.03499
3639.92687	0.03506
3637.86693	0.03513
3635.80698	0.03513
3633.74703	0.03510
3631.68708	0.03485
3629.62714	0.03506
3627.56719	0.03618
3625.50724	0.03629
3623.44730	0.03558
3621.38735	0.03504
3619.32740	0.03532
3617.26745	0.03581
3615.20751	0.03571
3613.14756	0.03565
3611.08761	0.03574
3609.02766	0.03583
3606.96772	0.03596
3604.90777	0.03575
3602.84782	0.03533
3600.78788	0.03515
3598.72793	0.03514
3596.66798	0.03512
3594.60803	0.03528
3592.54809	0.03535
3590.48814	0.03506
3588.42819	0.03511
3586.36824	0.03566
3584.30830	0.03561
3582.24835	0.03520
3580.18840	0.03509
3578.12846	0.03517
3576.06851	0.03521
3574.00856	0.03524
3571.94861	0.03516
3569.88867	0.03493
3567.82872	0.03509
3565.76877	0.03568
3563.70882	0.03576
3561.64888	0.03552
3559.58893	0.03543
3557.52898	0.03542
3555.46903	0.03540
3553.40909	0.03548
3551.34914	0.03563
3549.28919	0.03562
3547.22925	0.03567
3545.16930	0.03597
3543.10935	0.03618
3541.04940	0.03614
3538.98946	0.03605
3536.92951	0.03609
3534.86956	0.03613
3532.80961	0.03605
3530.74967	0.03599
3528.68972	0.03610
3526.62977	0.03629
3524.56983	0.03642
3522.50988	0.03642
3520.44993	0.03632
3518.38998	0.03631
3516.33004	0.03635
3514.27009	0.03626
3512.21014	0.03617
3510.15019	0.03632
3508.09025	0.03659
3506.03030	0.03661
3503.97035	0.03654
3501.91041	0.03664
3499.85046	0.03667
3497.79051	0.03661
3495.73056	0.03658
3493.67062	0.03658
3491.61067	0.03662
3489.55072	0.03668
3487.49077	0.03671
3485.43083	0.03671
3483.37088	0.03679
3481.31093	0.03694
3479.25098	0.03703
3477.19104	0.03701
3475.13109	0.03698
3473.07114	0.03698
3471.01120	0.03704
3468.95125	0.03707
3466.89130	0.03704
3464.83135	0.03707
3462.77141	0.03720
3460.71146	0.03731
3458.65151	0.03736
3456.59156	0.03738
3454.53162	0.03744
3452.47167	0.03748
3450.41172	0.03744
3448.35178	0.03741
3446.29183	0.03745
3444.23188	0.03744
3442.17193	0.03746
3440.11199	0.03759
3438.05204	0.03766
3435.99209	0.03757
3433.93214	0.03749
3431.87220	0.03754
3429.81225	0.03762
3427.75230	0.03771
3425.69236	0.03781
3423.63241	0.03779
3421.57246	0.03763
3419.51251	0.03758
3417.45257	0.03772
3415.39262	0.03785
3413.33267	0.03795
3411.27272	0.03802
3409.21278	0.03798
3407.15283	0.03795
3405.09288	0.03801
3403.03293	0.03813
3400.97299	0.03819
3398.91304	0.03812
3396.85309	0.03800
3394.79315	0.03794
3392.73320	0.03796
3390.67325	0.03807
3388.61330	0.03818
3386.55336	0.03823
3384.49341	0.03815
3382.43346	0.03803
3380.37351	0.03800
3378.31357	0.03805
3376.25362	0.03812
3374.19367	0.03819
3372.13373	0.03820
3370.07378	0.03821
3368.01383	0.03824
3365.95388	0.03824
3363.89394	0.03820
3361.83399	0.03822
3359.77404	0.03831
3357.71409	0.03834
3355.65415	0.03833
3353.59420	0.03835
3351.53425	0.03834
3349.47431	0.03827
3347.41436	0.03823
3345.35441	0.03828
3343.29446	0.03837
3341.23452	0.03837
3339.17457	0.03830
3337.11462	0.03828
3335.05467	0.03835
3332.99473	0.03841
3330.93478	0.03842
3328.87483	0.03837
3326.81488	0.03836
3324.75494	0.03845
3322.69499	0.03857
3320.63504	0.03854
3318.57510	0.03846
3316.51515	0.03849
3314.45520	0.03851
3312.39525	0.03848
3310.33531	0.03851
3308.27536	0.03858
3306.21541	0.03862
3304.15546	0.03860
3302.09552	0.03856
3300.03557	0.03855
3297.97562	0.03857
3295.91568	0.03855
3293.85573	0.03850
3291.79578	0.03853
3289.73583	0.03856
3287.67589	0.03858
3285.61594	0.03864
3283.55599	0.03861
3281.49604	0.03851
3279.43610	0.03851
3277.37615	0.03857
3275.31620	0.03863
3273.25626	0.03871
3271.19631	0.03869
3269.13636	0.03860
3267.07641	0.03854
3265.01647	0.03851
3262.95652	0.03853
3260.89657	0.03855
3258.83662	0.03852
3256.77668	0.03846
3254.71673	0.03841
3252.65678	0.03837
3250.59683	0.03833
3248.53689	0.03833
3246.47694	0.03838
3244.41699	0.03838
3242.35705	0.03830
3240.29710	0.03824
3238.23715	0.03823
3236.17720	0.03825
3234.11726	0.03828
3232.05731	0.03828
3229.99736	0.03828
3227.93741	0.03826
3225.87747	0.03819
3223.81752	0.03813
3221.75757	0.03813
3219.69763	0.03809
3217.63768	0.03794
3215.57773	0.03781
3213.51778	0.03788
3211.45784	0.03801
3209.39789	0.03803
3207.33794	0.03805
3205.27799	0.03803
3203.21805	0.03790
3201.15810	0.03779
3199.09815	0.03782
3197.03821	0.03787
3194.97826	0.03787
3192.91831	0.03781
3190.85836	0.03770
3188.79842	0.03766
3186.73847	0.03769
3184.67852	0.03771
3182.61857	0.03766
3180.55863	0.03755
3178.49868	0.03748
3176.43873	0.03750
3174.37878	0.03751
3172.31884	0.03740
3170.25889	0.03724
3168.19894	0.03718
3166.13900	0.03723
3164.07905	0.03728
3162.01910	0.03728
3159.95915	0.03724
3157.89921	0.03719
3155.83926	0.03712
3153.77931	0.03704
3151.71936	0.03699
3149.65942	0.03695
3147.59947	0.03692
3145.53952	0.03689
3143.47958	0.03683
3141.41963	0.03676
3139.35968	0.03672
3137.29973	0.03669
3135.23979	0.03666
3133.17984	0.03660
3131.11989	0.03652
3129.05994	0.03648
3127.00000	0.03647
3124.94005	0.03642
3122.88010	0.03641
3120.82016	0.03644
3118.76021	0.03644
3116.70026	0.03647
3114.64031	0.03648
3112.58037	0.03638
3110.52042	0.03627
3108.46047	0.03623
3106.40052	0.03626
3104.34058	0.03633
3102.28063	0.03639
3100.22068	0.03634
3098.16073	0.03619
3096.10079	0.03612
3094.04084	0.03621
3091.98089	0.03634
3089.92095	0.03634
3087.86100	0.03622
3085.80105	0.03611
3083.74110	0.03609
3081.68116	0.03615
3079.62121	0.03616
3077.56126	0.03614
3075.50131	0.03615
3073.44137	0.03618
3071.38142	0.03616
3069.32147	0.03614
3067.26153	0.03614
3065.20158	0.03612
3063.14163	0.03604
3061.08168	0.03598
3059.02174	0.03595
3056.96179	0.03594
3054.90184	0.03595
3052.84189	0.03594
3050.78195	0.03586
3048.72200	0.03579
3046.66205	0.03574
3044.60211	0.03573
3042.54216	0.03572
3040.48221	0.03571
3038.42226	0.03574
3036.36232	0.03574
3034.30237	0.03571
3032.24242	0.03567
3030.18247	0.03562
3028.12253	0.03553
3026.06258	0.03544
3024.00263	0.03546
3021.94268	0.03550
3019.88274	0.03547
3017.82279	0.03543
3015.76284	0.03542
3013.70290	0.03540
3011.64295	0.03540
3009.58300	0.03539
3007.52305	0.03533
3005.46311	0.03527
3003.40316	0.03524
3001.34321	0.03519
2999.28326	0.03516
2997.22332	0.03516
2995.16337	0.03518
2993.10342	0.03524
2991.04348	0.03526
2988.98353	0.03519
2986.92358	0.03514
2984.86363	0.03516
2982.80369	0.03522
2980.74374	0.03525
2978.68379	0.03524
2976.62384	0.03524
2974.56390	0.03523
2972.50395	0.03516
2970.44400	0.03517
2968.38406	0.03522
2966.32411	0.03521
2964.26416	0.03519
2962.20421	0.03523
2960.14427	0.03529
2958.08432	0.03535
2956.02437	0.03539
2953.96442	0.03544
2951.90448	0.03551
2949.84453	0.03558
2947.78458	0.03566
2945.72463	0.03573
2943.66469	0.03576
2941.60474	0.03575
2939.54479	0.03583
2937.48485	0.03599
2935.42490	0.03615
2933.36495	0.03628
2931.30500	0.03644
2929.24506	0.03662
2927.18511	0.03675
2925.12516	0.03683
2923.06521	0.03688
2921.00527	0.03693
2918.94532	0.03690
2916.88537	0.03676
2914.82543	0.03654
2912.76548	0.03633
2910.70553	0.03614
2908.64558	0.03596
2906.58564	0.03579
2904.52569	0.03569
2902.46574	0.03568
2900.40579	0.03563
2898.34585	0.03550
2896.28590	0.03536
2894.22595	0.03526
2892.16601	0.03521
2890.10606	0.03516
2888.04611	0.03508
2885.98616	0.03501
2883.92622	0.03496
2881.86627	0.03491
2879.80632	0.03487
2877.74637	0.03483
2875.68643	0.03477
2873.62648	0.03472
2871.56653	0.03465
2869.50658	0.03459
2867.44664	0.03460
2865.38669	0.03467
2863.32674	0.03478
2861.26680	0.03487
2859.20685	0.03490
2857.14690	0.03496
2855.08695	0.03509
2853.02701	0.03521
2850.96706	0.03528
2848.90711	0.03529
2846.84716	0.03514
2844.78722	0.03488
2842.72727	0.03464
2840.66732	0.03446
2838.60738	0.03429
2836.54743	0.03414
2834.48748	0.03406
2832.42753	0.03402
2830.36759	0.03399
2828.30764	0.03392
2826.24769	0.03377
2824.18774	0.03367
2822.12780	0.03363
2820.06785	0.03360
2818.00790	0.03359
2815.94796	0.03360
2813.88801	0.03361
2811.82806	0.03359
2809.76811	0.03351
2807.70817	0.03341
2805.64822	0.03331
2803.58827	0.03321
2801.52832	0.03315
2799.46838	0.03316
2797.40843	0.03320
2795.34848	0.03317
2793.28853	0.03309
2791.22859	0.03304
2789.16864	0.03304
2787.10869	0.03302
2785.04875	0.03295
2782.98880	0.03285
2780.92885	0.03279
2778.86890	0.03280
2776.80896	0.03281
2774.74901	0.03275
2772.68906	0.03265
2770.62911	0.03261
2768.56917	0.03262
2766.50922	0.03263
2764.44927	0.03259
2762.38933	0.03254
2760.32938	0.03248
2758.26943	0.03241
2756.20948	0.03239
2754.14954	0.03238
2752.08959	0.03236
2750.02964	0.03236
2747.96969	0.03234
2745.90975	0.03228
2743.84980	0.03223
2741.78985	0.03220
2739.72991	0.03218
2737.66996	0.03217
2735.61001	0.03214
2733.55006	0.03210
2731.49012	0.03208
2729.43017	0.03204
2727.37022	0.03201
2725.31027	0.03198
2723.25033	0.03192
2721.19038	0.03188
2719.13043	0.03190
2717.07048	0.03191
2715.01054	0.03190
2712.95059	0.03185
2710.89064	0.03179
2708.83070	0.03175
2706.77075	0.03172
2704.71080	0.03170
2702.65085	0.03168
2700.59091	0.03167
2698.53096	0.03163
2696.47101	0.03157
2694.41106	0.03153
2692.35112	0.03151
2690.29117	0.03152
2688.23122	0.03154
2686.17128	0.03153
2684.11133	0.03149
2682.05138	0.03143
2679.99143	0.03137
2677.93149	0.03135
2675.87154	0.03135
2673.81159	0.03132
2671.75164	0.03127
2669.69170	0.03127
2667.63175	0.03138
2665.57180	0.03157
2663.51186	0.03177
2661.45191	0.03189
2659.39196	0.03192
2657.33201	0.03191
2655.27207	0.03190
2653.21212	0.03190
2651.15217	0.03191
2649.09222	0.03194
2647.03228	0.03190
2644.97233	0.03181
2642.91238	0.03171
2640.85243	0.03159
2638.79249	0.03142
2636.73254	0.03127
2634.67259	0.03120
2632.61265	0.03116
2630.55270	0.03109
2628.49275	0.03099
2626.43280	0.03091
2624.37286	0.03081
2622.31291	0.03072
2620.25296	0.03063
2618.19301	0.03060
2616.13307	0.03063
2614.07312	0.03058
2612.01317	0.03044
2609.95323	0.03029
2607.89328	0.03017
2605.83333	0.03008
2603.77338	0.03004
2601.71344	0.03001
2599.65349	0.02998
2597.59354	0.02992
2595.53359	0.02984
2593.47365	0.02973
2591.41370	0.02957
2589.35375	0.02947
2587.29381	0.02943
2585.23386	0.02942
2583.17391	0.02948
2581.11396	0.02957
2579.05402	0.02949
2576.99407	0.02927
2574.93412	0.02912
2572.87417	0.02904
2570.81423	0.02896
2568.75428	0.02887
2566.69433	0.02881
2564.63438	0.02881
2562.57444	0.02882
2560.51449	0.02879
2558.45454	0.02872
2556.39460	0.02859
2554.33465	0.02850
2552.27470	0.02850
2550.21475	0.02849
2548.15481	0.02840
2546.09486	0.02827
2544.03491	0.02814
2541.97496	0.02811
2539.91502	0.02821
2537.85507	0.02838
2535.79512	0.02848
2533.73518	0.02841
2531.67523	0.02825
2529.61528	0.02809
2527.55533	0.02800
2525.49539	0.02799
2523.43544	0.02803
2521.37549	0.02805
2519.31554	0.02801
2517.25560	0.02792
2515.19565	0.02787
2513.13570	0.02786
2511.07576	0.02784
2509.01581	0.02783
2506.95586	0.02780
2504.89591	0.02774
2502.83597	0.02765
2500.77602	0.02759
2498.71607	0.02764
2496.65612	0.02775
2494.59618	0.02782
2492.53623	0.02779
2490.47628	0.02767
2488.41633	0.02752
2486.35639	0.02744
2484.29644	0.02747
2482.23649	0.02750
2480.17655	0.02744
2478.11660	0.02740
2476.05665	0.02748
2473.99670	0.02759
2471.93676	0.02758
2469.87681	0.02746
2467.81686	0.02741
2465.75691	0.02749
2463.69697	0.02756
2461.63702	0.02755
2459.57707	0.02755
2457.51713	0.02764
2455.45718	0.02768
2453.39723	0.02755
2451.33728	0.02740
2449.27734	0.02731
2447.21739	0.02720
2445.15744	0.02705
2443.09749	0.02693
2441.03755	0.02690
2438.97760	0.02693
2436.91765	0.02690
2434.85771	0.02689
2432.79776	0.02691
2430.73781	0.02683
2428.67786	0.02668
2426.61792	0.02662
2424.55797	0.02664
2422.49802	0.02666
2420.43807	0.02670
2418.37813	0.02665
2416.31818	0.02649
2414.25823	0.02637
2412.19828	0.02634
2410.13834	0.02625
2408.07839	0.02613
2406.01844	0.02612
2403.95850	0.02614
2401.89855	0.02612
2399.83860	0.02609
2397.77865	0.02606
2395.71871	0.02604
2393.65876	0.02603
2391.59881	0.02603
2389.53886	0.02600
2387.47892	0.02591
2385.41897	0.02577
2383.35902	0.02567
2381.29908	0.02566
2379.23913	0.02571
2377.17918	0.02574
2375.11923	0.02566
2373.05929	0.02549
2370.99934	0.02537
2368.93939	0.02539
2366.87944	0.02563
2364.81950	0.02598
2362.75955	0.02620
2360.69960	0.02636
2358.63966	0.02655
2356.57971	0.02661
2354.51976	0.02658
2352.45981	0.02660
2350.39987	0.02649
2348.33992	0.02625
2346.27997	0.02615
2344.22002	0.02635
2342.16008	0.02653
2340.10013	0.02646
2338.04018	0.02640
2335.98023	0.02648
2333.92029	0.02661
2331.86034	0.02683
2329.80039	0.02741
2327.74045	0.02848
2325.68050	0.02937
2323.62055	0.02931
2321.56060	0.02870
2319.50066	0.02821
2317.44071	0.02792
2315.38076	0.02778
2313.32081	0.02765
2311.26087	0.02745
2309.20092	0.02733
2307.14097	0.02732
2305.08103	0.02726
2303.02108	0.02719
2300.96113	0.02720
2298.90118	0.02721
2296.84124	0.02725
2294.78129	0.02747
2292.72134	0.02778
2290.66139	0.02803
2288.60145	0.02809
2286.54150	0.02792
2284.48155	0.02760
2282.42161	0.02729
2280.36166	0.02703
2278.30171	0.02679
2276.24176	0.02658
2274.18182	0.02643
2272.12187	0.02639
2270.06192	0.02627
2268.00197	0.02591
2265.94203	0.02556
2263.88208	0.02550
2261.82213	0.02568
2259.76218	0.02585
2257.70224	0.02559
2255.64229	0.02502
2253.58234	0.02470
2251.52240	0.02474
2249.46245	0.02492
2247.40250	0.02511
2245.34255	0.02529
2243.28261	0.02527
2241.22266	0.02511
2239.16271	0.02511
2237.10276	0.02515
2235.04282	0.02502
2232.98287	0.02485
2230.92292	0.02472
2228.86298	0.02459
2226.80303	0.02450
2224.74308	0.02461
2222.68313	0.02479
2220.62319	0.02460
2218.56324	0.02410
2216.50329	0.02381
2214.44334	0.02387
2212.38340	0.02405
2210.32345	0.02421
2208.26350	0.02433
2206.20356	0.02440
2204.14361	0.02450
2202.08366	0.02444
2200.02371	0.02417
2197.96377	0.02404
2195.90382	0.02407
2193.84387	0.02423
2191.78392	0.02460
2189.72398	0.02489
2187.66403	0.02480
2185.60408	0.02429
2183.54413	0.02357
2181.48419	0.02326
2179.42424	0.02333
2177.36429	0.02314
2175.30435	0.02297
2173.24440	0.02343
2171.18445	0.02429
2169.12450	0.02506
2167.06456	0.02544
2165.00461	0.02561
2162.94466	0.02508
2160.88471	0.02180
2158.82477	0.01744
2156.76482	0.01638
2154.70487	0.01775
2152.64493	0.01903
2150.58498	0.01957
2148.52503	0.01943
2146.46508	0.01922
2144.40514	0.01935
2142.34519	0.01952
2140.28524	0.01959
2138.22529	0.01947
2136.16535	0.01894
2134.10540	0.01866
2132.04545	0.01913
2129.98551	0.01990
2127.92556	0.02057
2125.86561	0.02116
2123.80566	0.02160
2121.74572	0.02187
2119.68577	0.02224
2117.62582	0.02286
2115.56587	0.02335
2113.50593	0.02348
2111.44598	0.02343
2109.38603	0.02332
2107.32608	0.02312
2105.26614	0.02294
2103.20619	0.02295
2101.14624	0.02313
2099.08630	0.02318
2097.02635	0.02284
2094.96640	0.02237
2092.90645	0.02225
2090.84651	0.02256
2088.78656	0.02292
2086.72661	0.02318
2084.66666	0.02351
2082.60672	0.02382
2080.54677	0.02394
2078.48682	0.02381
2076.42688	0.02342
2074.36693	0.02311
2072.30698	0.02305
2070.24703	0.02286
2068.18709	0.02251
2066.12714	0.02242
2064.06719	0.02261
2062.00724	0.02272
2059.94730	0.02279
2057.88735	0.02292
2055.82740	0.02307
2053.76746	0.02366
2051.70751	0.02431
2049.64756	0.02384
2047.58761	0.02293
2045.52767	0.02257
2043.46772	0.02262
2041.40777	0.02275
2039.34782	0.02282
2037.28788	0.02260
2035.22793	0.02194
2033.16798	0.02138
2031.10803	0.02119
2029.04809	0.02097
2026.98814	0.02079
2024.92819	0.02078
2022.86825	0.02084
2020.80830	0.02078
2018.74835	0.02055
2016.68840	0.02040
2014.62846	0.02030
2012.56851	0.02017
2010.50856	0.02008
2008.44861	0.01962
2006.38867	0.01919
2004.32872	0.01962
2002.26877	0.02048
2000.20883	0.02116
1998.14888	0.02155
1996.08893	0.02176
1994.02898	0.02197
1991.96904	0.02224
1989.90909	0.02243
1987.84914	0.02262
1985.78919	0.02309
1983.72925	0.02385
1981.66930	0.02423
1979.60935	0.02313
1977.54941	0.02099
1975.48946	0.01971
1973.42951	0.01950
1971.36956	0.01935
1969.30962	0.01909
1967.24967	0.01917
1965.18972	0.01958
1963.12977	0.01971
1961.06983	0.01924
1959.00988	0.01892
1956.94993	0.01921
1954.88998	0.01968
1952.83004	0.02006
1950.77009	0.02024
1948.71014	0.02010
1946.65020	0.01984
1944.59025	0.01986
1942.53030	0.02026
1940.47035	0.02055
1938.41041	0.02054
1936.35046	0.02049
1934.29051	0.02052
1932.23056	0.02061
1930.17062	0.02072
1928.11067	0.02077
1926.05072	0.02078
1923.99078	0.02088
1921.93083	0.02108
1919.87088	0.02119
1917.81093	0.02128
1915.75099	0.02145
1913.69104	0.02157
1911.63109	0.02158
1909.57114	0.02158
1907.51120	0.02162
1905.45125	0.02171
1903.39130	0.02185
1901.33136	0.02190
1899.27141	0.02186
1897.21146	0.02186
1895.15151	0.02195
1893.09157	0.02200
1891.03162	0.02201
1888.97167	0.02213
1886.91172	0.02237
1884.85178	0.02254
1882.79183	0.02255
1880.73188	0.02246
1878.67193	0.02242
1876.61199	0.02241
1874.55204	0.02242
1872.49209	0.02244
1870.43215	0.02247
1868.37220	0.02256
1866.31225	0.02256
1864.25230	0.02247
1862.19236	0.02244
1860.13241	0.02246
1858.07246	0.02238
1856.01251	0.02220
1853.95257	0.02213
1851.89262	0.02215
1849.83267	0.02207
1847.77273	0.02189
1845.71278	0.02182
1843.65283	0.02189
1841.59288	0.02183
1839.53294	0.02170
1837.47299	0.02175
1835.41304	0.02187
1833.35309	0.02181
1831.29315	0.02174
1829.23320	0.02186
1827.17325	0.02194
1825.11331	0.02198
1823.05336	0.02202
1820.99341	0.02179
1818.93346	0.02145
1816.87352	0.02134
1814.81357	0.02148
1812.75362	0.02170
1810.69367	0.02198
1808.63373	0.02225
1806.57378	0.02236
1804.51383	0.02236
1802.45388	0.02241
1800.39394	0.02256
1798.33399	0.02264
1796.27404	0.02258
1794.21410	0.02253
1792.15415	0.02269
1790.09420	0.02290
1788.03425	0.02293
1785.97431	0.02292
1783.91436	0.02292
1781.85441	0.02291
1779.79446	0.02297
1777.73452	0.02299
1775.67457	0.02294
1773.61462	0.02302
1771.55468	0.02330
1769.49473	0.02341
1767.43478	0.02338
1765.37483	0.02335
1763.31489	0.02337
1761.25494	0.02355
1759.19499	0.02367
1757.13504	0.02373
1755.07510	0.02377
1753.01515	0.02375
1750.95520	0.02395
1748.89526	0.02438
1746.83531	0.02460
1744.77536	0.02466
1742.71541	0.02475
1740.65547	0.02491
1738.59552	0.02512
1736.53557	0.02521
1734.47562	0.02545
1732.41568	0.02587
1730.35573	0.02600
1728.29578	0.02604
1726.23583	0.02605
1724.17589	0.02611
1722.11594	0.02622
1720.05599	0.02625
1717.99605	0.02654
1715.93610	0.02720
1713.87615	0.02748
1711.81620	0.02746
1709.75626	0.02742
1707.69631	0.02750
1705.63636	0.02777
1703.57641	0.02796
1701.51647	0.02812
1699.45652	0.02864
1697.39657	0.02907
1695.33663	0.02935
1693.27668	0.02948
1691.21673	0.02951
1689.15678	0.02967
1687.09684	0.02978
1685.03689	0.03007
1682.97694	0.03081
1680.91699	0.03112
1678.85705	0.03114
1676.79710	0.03125
1674.73715	0.03164
1672.67721	0.03196
1670.61726	0.03217
1668.55731	0.03254
1666.49736	0.03268
1664.43742	0.03273
1662.37747	0.03310
1660.31752	0.03348
1658.25757	0.03356
1656.19763	0.03352
1654.13768	0.03382
1652.07773	0.03469
1650.01778	0.03477
1647.95784	0.03469
1645.89789	0.03506
1643.83794	0.03522
1641.77800	0.03515
1639.71805	0.03513
1637.65810	0.03525
1635.59815	0.03578
1633.53821	0.03616
1631.47826	0.03608
1629.41831	0.03604
1627.35836	0.03619
1625.29842	0.03634
1623.23847	0.03652
1621.17852	0.03662
1619.11858	0.03654
1617.05863	0.03671
1614.99868	0.03703
1612.93873	0.03698
1610.87879	0.03684
1608.81884	0.03682
1606.75889	0.03683
1604.69894	0.03680
1602.63900	0.03680
1600.57905	0.03682
1598.51910	0.03681
1596.45916	0.03679
1594.39921	0.03680
1592.33926	0.03676
1590.27931	0.03664
1588.21937	0.03653
1586.15942	0.03643
1584.09947	0.03627
1582.03952	0.03612
1579.97958	0.03593
1577.91963	0.03572
1575.85968	0.03573
1573.79973	0.03567
1571.73979	0.03536
1569.67984	0.03517
1567.61989	0.03512
1565.55995	0.03496
1563.50000	0.03471
1561.44005	0.03437
1559.38010	0.03436
1557.32016	0.03463
1555.26021	0.03438
1553.20026	0.03406
1551.14031	0.03381
1549.08037	0.03359
1547.02042	0.03340
1544.96047	0.03324
1542.90053	0.03312
1540.84058	0.03311
1538.78063	0.03317
1536.72068	0.03290
1534.66074	0.03264
1532.60079	0.03259
1530.54084	0.03244
1528.48089	0.03219
1526.42095	0.03204
1524.36100	0.03187
1522.30105	0.03174
1520.24111	0.03168
1518.18116	0.03151
1516.12121	0.03137
1514.06126	0.03126
1512.00132	0.03105
1509.94137	0.03080
1507.88142	0.03078
1505.82147	0.03101
1503.76153	0.03076
1501.70158	0.03033
1499.64163	0.03009
1497.58168	0.03015
1495.52174	0.03024
1493.46179	0.03011
1491.40184	0.03000
1489.34190	0.03013
1487.28195	0.03028
1485.22200	0.03027
1483.16205	0.03029
1481.10211	0.03041
1479.04216	0.03051
1476.98221	0.03064
1474.92226	0.03094
1472.86232	0.03149
1470.80237	0.03193
1468.74242	0.03199
1466.68248	0.03205
1464.62253	0.03236
1462.56258	0.03258
1460.50263	0.03253
1458.44269	0.03265
1456.38274	0.03324
1454.32279	0.03347
1452.26284	0.03339
1450.20290	0.03333
1448.14295	0.03336
1446.08300	0.03341
1444.02306	0.03341
1441.96311	0.03338
1439.90316	0.03337
1437.84321	0.03350
1435.78327	0.03377
1433.72332	0.03383
1431.66337	0.03380
1429.60342	0.03386
1427.54348	0.03387
1425.48353	0.03385
1423.42358	0.03390
1421.36363	0.03391
1419.30369	0.03400
1417.24374	0.03417
1415.18379	0.03414
1413.12385	0.03405
1411.06390	0.03398
1409.00395	0.03384
1406.94400	0.03364
1404.88406	0.03350
1402.82411	0.03341
1400.76416	0.03332
1398.70421	0.03325
1396.64427	0.03320
1394.58432	0.03316
1392.52437	0.03307
1390.46443	0.03288
1388.40448	0.03276
1386.34453	0.03276
1384.28458	0.03271
1382.22464	0.03264
1380.16469	0.03259
1378.10474	0.03255
1376.04479	0.03252
1373.98485	0.03251
1371.92490	0.03245
1369.86495	0.03231
1367.80501	0.03217
1365.74506	0.03203
1363.68511	0.03192
1361.62516	0.03184
1359.56522	0.03172
1357.50527	0.03155
1355.44532	0.03140
1353.38537	0.03127
1351.32543	0.03115
1349.26548	0.03100
1347.20553	0.03086
1345.14558	0.03078
1343.08564	0.03068
1341.02569	0.03058
1338.96574	0.03057
1336.90580	0.03058
1334.84585	0.03050
1332.78590	0.03040
1330.72595	0.03029
1328.66601	0.03017
1326.60606	0.03008
1324.54611	0.03003
1322.48616	0.03001
1320.42622	0.03004
1318.36627	0.03009
1316.30632	0.03010
1314.24638	0.03008
1312.18643	0.03004
1310.12648	0.02998
1308.06653	0.02992
1306.00659	0.02990
1303.94664	0.02994
1301.88669	0.03001
1299.82674	0.03006
1297.76680	0.03008
1295.70685	0.03011
1293.64690	0.03014
1291.58696	0.03020
1289.52701	0.03036
1287.46706	0.03057
1285.40711	0.03075
1283.34717	0.03089
1281.28722	0.03103
1279.22727	0.03119
1277.16732	0.03134
1275.10738	0.03149
1273.04743	0.03162
1270.98748	0.03175
1268.92753	0.03189
1266.86759	0.03199
1264.80764	0.03209
1262.74769	0.03227
1260.68775	0.03247
1258.62780	0.03260
1256.56785	0.03273
1254.50790	0.03296
1252.44796	0.03333
1250.38801	0.03378
1248.32806	0.03418
1246.26811	0.03451
1244.20817	0.03480
1242.14822	0.03510
1240.08827	0.03542
1238.02833	0.03578
1235.96838	0.03618
1233.90843	0.03661
1231.84848	0.03708
1229.78854	0.03755
1227.72859	0.03803
1225.66864	0.03859
1223.60869	0.03929
1221.54875	0.04011
1219.48880	0.04104
1217.42885	0.04208
1215.36891	0.04318
1213.30896	0.04430
1211.24901	0.04545
1209.18906	0.04664
1207.12912	0.04785
1205.06917	0.04904
1203.00922	0.05023
1200.94927	0.05141
1198.88933	0.05254
1196.82938	0.05363
1194.76943	0.05469
1192.70949	0.05577
1190.64954	0.05688
1188.58959	0.05797
1186.52964	0.05912
1184.46970	0.06040
1182.40975	0.06175
1180.34980	0.06316
1178.28985	0.06469
1176.22991	0.06639
1174.16996	0.06825
1172.11001	0.07028
1170.05006	0.07248
1167.99012	0.07481
1165.93017	0.07710
1163.87022	0.07887
1161.81028	0.07948
1159.75033	0.07891
1157.69038	0.07796
1155.63043	0.07746
1153.57049	0.07774
1151.51054	0.07864
1149.45059	0.07986
1147.39064	0.08123
1145.33070	0.08270
1143.27075	0.08428
1141.21080	0.08601
1139.15086	0.08783
1137.09091	0.08967
1135.03096	0.09161
1132.97101	0.09366
1130.91107	0.09579
1128.85112	0.09800
1126.79117	0.10024
1124.73122	0.10245
1122.67128	0.10474
1120.61133	0.10718
1118.55138	0.10963
1116.49144	0.11206
1114.43149	0.11451
1112.37154	0.11698
1110.31159	0.11947
1108.25165	0.12194
1106.19170	0.12447
1104.13175	0.12709
1102.07180	0.12968
1100.01186	0.13225
1097.95191	0.13488
1095.89196	0.13751
1093.83201	0.14000
1091.77207	0.14233
1089.71212	0.14454
1087.65217	0.14660
1085.59223	0.14844
1083.53228	0.14997
1081.47233	0.15118
1079.41238	0.15220
1077.35244	0.15308
1075.29249	0.15373
1073.23254	0.15419
1071.17259	0.15474
1069.11265	0.15556
1067.05270	0.15668
1064.99275	0.15801
1062.93281	0.15939
1060.87286	0.16059
1058.81291	0.16154
1056.75296	0.16231
1054.69302	0.16295
1052.63307	0.16346
1050.57312	0.16398
1048.51317	0.16457
1046.45323	0.16515
1044.39328	0.16574
1042.33333	0.16643
1040.27339	0.16720
1038.21344	0.16798
1036.15349	0.16867
1034.09354	0.16923
1032.03360	0.16957
1029.97365	0.16958
1027.91370	0.16931
1025.85375	0.16887
1023.79381	0.16826
1021.73386	0.16756
1019.67391	0.16696
1017.61396	0.16657
1015.55402	0.16632
1013.49407	0.16610
1011.43412	0.16591
1009.37418	0.16564
1007.31423	0.16512
1005.25428	0.16429
1003.19433	0.16323
1001.13439	0.16201
999.07444	0.16064
997.01449	0.15920
994.95454	0.15776
992.89460	0.15637
990.83465	0.15499
988.77470	0.15352
986.71476	0.15195
984.65481	0.15038
982.59486	0.14873
980.53491	0.14699
978.47497	0.14516
976.41502	0.14327
974.35507	0.14140
972.29512	0.13950
970.23518	0.13753
968.17523	0.13561
966.11528	0.13384
964.05534	0.13215
961.99539	0.13043
959.93544	0.12866
957.87549	0.12694
955.81555	0.12535
953.75560	0.12388
951.69565	0.12242
949.63570	0.12099
947.57576	0.11967
945.51581	0.11844
943.45586	0.11728
941.39591	0.11624
939.33597	0.11517
937.27602	0.11400
935.21607	0.11279
933.15613	0.11158
931.09618	0.11041
929.03623	0.10925
926.97628	0.10808
924.91634	0.10696
922.85639	0.10594
920.79644	0.10503
918.73649	0.10420
916.67655	0.10342
914.61660	0.10252
912.55665	0.10139
910.49671	0.10009
908.43676	0.09854
906.37681	0.09670
904.31686	0.09471
902.25692	0.09282
900.19697	0.09110
898.13702	0.08940
896.07707	0.08765
894.01713	0.08587
891.95718	0.08418
889.89723	0.08265
887.83729	0.08129
885.77734	0.07996
883.71739	0.07862
881.65744	0.07728
879.59750	0.07589
877.53755	0.07451
875.47760	0.07313
873.41765	0.07173
871.35771	0.07035
869.29776	0.06896
867.23781	0.06757
865.17786	0.06630
863.11792	0.06513
861.05797	0.06392
858.99802	0.06268
856.93808	0.06153
854.87813	0.06046
852.81818	0.05945
850.75823	0.05858
848.69829	0.05777
846.63834	0.05691
844.57839	0.05607
842.51844	0.05546
840.45850	0.05517
838.39855	0.05507
836.33860	0.05491
834.27866	0.05470
832.21871	0.05454
830.15876	0.05446
828.09881	0.05450
826.03887	0.05466
823.97892	0.05499
821.91897	0.05550
819.85902	0.05625
817.79908	0.05740
815.73913	0.05904
813.67918	0.06129
811.61924	0.06461
809.55929	0.06944
807.49934	0.07593
805.43939	0.08376
803.37945	0.09216
801.31950	0.10015
799.25955	0.10653
797.19960	0.11020
795.13966	0.11116
793.07971	0.11061
791.01976	0.10978
788.95981	0.10956
786.89987	0.11067
784.83992	0.11338
782.77997	0.11740
780.72003	0.12173
778.66008	0.12484
776.60013	0.12566
774.54018	0.12427
772.48024	0.12160
770.42029	0.11851
768.36034	0.11546
766.30039	0.11254
764.24045	0.10973
762.18050	0.10711
760.12055	0.10469
758.06061	0.10227
756.00066	0.09981
753.94071	0.09754
751.88076	0.09552
749.82082	0.09361
747.76087	0.09177
745.70092	0.09003
743.64097	0.08836
741.58103	0.08679
739.52108	0.08531
737.46113	0.08392
735.40119	0.08258
733.34124	0.08140
731.28129	0.08039
729.22134	0.07952
727.16140	0.07877
725.10145	0.07805
723.04150	0.07729
720.98155	0.07652
718.92161	0.07574
716.86166	0.07500
714.80171	0.07453
712.74176	0.07432
710.68182	0.07427
708.62187	0.07445
706.56192	0.07501
704.50198	0.07620
702.44203	0.07846
700.38208	0.08229
698.32213	0.08759
696.26219	0.09267
694.20224	0.09509
692.14229	0.09411
690.08234	0.09099
688.02240	0.08735
685.96245	0.08407
683.90250	0.08126
681.84256	0.07876
679.78261	0.07653
677.72266	0.07472
675.66271	0.07330
673.60277	0.07202
671.54282	0.07083
669.48287	0.06973
667.42292	0.06857
665.36298	0.06756
663.30303	0.06673
661.24308	0.06601
659.18314	0.06547
657.12319	0.06513
655.06324	0.06486
653.00329	0.06462
650.94335	0.06456
648.88340	0.06447
646.82345	0.06418
644.76350	0.06380
642.70356	0.06346
640.64361	0.06307
638.58366	0.06253
636.52371	0.06198
634.46377	0.06156
632.40382	0.06114
630.34387	0.06058
628.28393	0.06013
626.22398	0.05998
624.16403	0.06003
622.10408	0.06007
620.04414	0.05994
617.98419	0.05972
615.92424	0.05976
613.86429	0.06014
611.80435	0.06057
609.74440	0.06090
607.68445	0.06118
605.62451	0.06153
603.56456	0.06187
601.50461	0.06208
599.44466	0.06223
597.38472	0.06246
595.32477	0.06273
593.26482	0.06304
591.20487	0.06350
589.14493	0.06401
587.08498	0.06445
585.02503	0.06480
582.96509	0.06512
580.90514	0.06554
578.84519	0.06607
576.78524	0.06648
574.72530	0.06679
572.66535	0.06726
570.60540	0.06780
568.54545	0.06843
566.48551	0.06929
564.42556	0.07013
562.36561	0.07090
560.30566	0.07188
558.24572	0.07305
556.18577	0.07432
554.12582	0.07569
552.06588	0.07752
550.00593	0.07991
547.94598	0.08259
545.88603	0.08574
543.82609	0.08944
541.76614	0.09347
539.70619	0.09769
537.64624	0.10184
535.58630	0.10572
533.52635	0.10935
531.46640	0.11271
529.40646	0.11572
527.34651	0.11850
525.28656	0.12104
523.22661	0.12284
521.16667	0.12394
519.10672	0.12470
517.04677	0.12501
514.98682	0.12466
512.92688	0.12359
510.86693	0.12196
508.80698	0.12047
506.74704	0.11991
504.68709	0.12068
502.62714	0.12290
500.56719	0.12628
498.50725	0.13016
496.44730	0.13434
494.38735	0.13875
492.32740	0.14329
490.26746	0.14773
488.20751	0.15204
486.14756	0.15681
484.08761	0.16275
482.02767	0.16927
479.96772	0.17533
477.90777	0.18132
475.84783	0.18754
473.78788	0.19398
471.72793	0.20056
469.66798	0.20618
467.60804	0.21106
465.54809	0.21565
463.48814	0.21925
461.42819	0.22183
459.36825	0.22373
457.30830	0.22493
455.24835	0.22508
453.18841	0.22429
451.12846	0.22303
449.06851	0.22151
447.00856	0.21959
444.94862	0.21724
442.88867	0.21500
440.82872	0.21309
438.76877	0.21107
436.70883	0.20911
434.64888	0.20781
432.58893	0.20702
430.52899	0.20582
428.46904	0.20348
426.40909	0.20037
424.34914	0.19761
422.28920	0.19530
420.22925	0.19174
418.16930	0.18606
416.10935	0.18070
414.04941	0.17503
411.98946	0.16755
409.92951	0.15836
407.86956	0.14932
405.80962	0.14429
403.74967	0.14631
401.68972	0.15587
399.62978	0.17255
