3996.29776	0.01357
3994.23781	0.01358
3992.17786	0.01357
3990.11791	0.01352
3988.05797	0.01348
3985.99802	0.01347
3983.93807	0.01345
3981.87813	0.01346
3979.81818	0.01351
3977.75823	0.01359
3975.69828	0.01366
3973.63834	0.01363
3971.57839	0.01353
3969.51844	0.01345
3967.45849	0.01339
3965.39855	0.01337
3963.33860	0.01344
3961.27865	0.01357
3959.21870	0.01362
3957.15876	0.01356
3955.09881	0.01345
3953.03886	0.01340
3950.97892	0.01355
3948.91897	0.01369
3946.85902	0.01363
3944.79907	0.01360
3942.73913	0.01363
3940.67918	0.01353
3938.61923	0.01346
3936.55928	0.01354
3934.49934	0.01366
3932.43939	0.01369
3930.37944	0.01355
3928.31950	0.01345
3926.25955	0.01349
3924.19960	0.01350
3922.13965	0.01342
3920.07971	0.01343
3918.01976	0.01346
3915.95981	0.01331
3913.89986	0.01313
3911.83992	0.01311
3909.77997	0.01316
3907.72002	0.01323
3905.66008	0.01346
3903.60013	0.01363
3901.54018	0.01351
3899.48023	0.01333
3897.42029	0.01325
3895.36034	0.01326
3893.30039	0.01341
3891.24044	0.01352
3889.18050	0.01339
3887.12055	0.01335
3885.06060	0.01346
3883.00065	0.01348
3880.94071	0.01352
3878.88076	0.01342
3876.82081	0.01337
3874.76087	0.01356
3872.70092	0.01366
3870.64097	0.01358
3868.58102	0.01338
3866.52108	0.01328
3864.46113	0.01340
3862.40118	0.01336
3860.34123	0.01321
3858.28129	0.01326
3856.22134	0.01350
3854.16139	0.01369
3852.10145	0.01333
3850.04150	0.01299
3847.98155	0.01304
3845.92160	0.01325
3843.86166	0.01343
3841.80171	0.01349
3839.74176	0.01357
3837.68181	0.01356
3835.62187	0.01330
3833.56192	0.01317
3831.50197	0.01318
3829.44203	0.01313
3827.38208	0.01320
3825.32213	0.01333
3823.26218	0.01351
3821.20224	0.01372
3819.14229	0.01348
3817.08234	0.01330
3815.02239	0.01327
3812.96245	0.01307
3810.90250	0.01301
3808.84255	0.01326
3806.78260	0.01352
3804.72266	0.01343
3802.66271	0.01340
3800.60276	0.01333
3798.54282	0.01311
3796.48287	0.01313
3794.42292	0.01309
3792.36297	0.01303
3790.30303	0.01313
3788.24308	0.01323
3786.18313	0.01318
3784.12318	0.01302
3782.06324	0.01297
3780.00329	0.01300
3777.94334	0.01290
3775.88340	0.01282
3773.82345	0.01291
3771.76350	0.01311
3769.70355	0.01328
3767.64361	0.01324
3765.58366	0.01312
3763.52371	0.01301
3761.46376	0.01302
3759.40382	0.01317
3757.34387	0.01311
3755.28392	0.01301
3753.22398	0.01326
3751.16403	0.01359
3749.10408	0.01342
3747.04413	0.01318
3744.98419	0.01327
3742.92424	0.01316
3740.86429	0.01288
3738.80434	0.01284
3736.74440	0.01296
3734.68445	0.01306
3732.62450	0.01310
3730.56455	0.01297
3728.50461	0.01278
3726.44466	0.01274
3724.38471	0.01278
3722.32477	0.01278
3720.26482	0.01265
3718.20487	0.01245
3716.14492	0.01237
3714.08498	0.01256
3712.02503	0.01298
3709.96508	0.01313
3707.90513	0.01295
3705.84519	0.01285
3703.78524	0.01299
3701.72529	0.01321
3699.66535	0.01334
3697.60540	0.01346
3695.54545	0.01359
3693.48550	0.01373
3691.42556	0.01393
3689.36561	0.01402
3687.30566	0.01377
3685.24571	0.01353
3683.18577	0.01351
3681.12582	0.01363
3679.06587	0.01376
3677.00593	0.01402
3674.94598	0.01414
3672.88603	0.01391
3670.82608	0.01400
3668.76614	0.01404
3666.70619	0.01377
3664.64624	0.01370
3662.58629	0.01373
3660.52635	0.01373
3658.46640	0.01382
3656.40645	0.01389
3654.34651	0.01379
3652.28656	0.01388
3650.22661	0.01424
3648.16666	0.01419
3646.10672	0.01373
3644.04677	0.01349
3641.98682	0.01353
3639.92687	0.01366
3637.86693	0.01372
3635.80698	0.01380
3633.74703	0.01391
3631.68708	0.01398
3629.62714	0.01413
3627.56719	0.01401
3625.50724	0.01369
3623.44730	0.01364
3621.38735	0.01387
3619.32740	0.01410
3617.26745	0.01398
3615.20751	0.01388
3613.14756	0.01395
3611.08761	0.01396
3609.02766	0.01393
3606.96772	0.01379
3604.90777	0.01366
3602.84782	0.01371
3600.78788	0.01378
3598.72793	0.01377
3596.66798	0.01380
3594.60803	0.01382
3592.54809	0.01372
3590.48814	0.01374
3588.42819	0.01397
3586.36824	0.01389
3584.30830	0.01357
3582.24835	0.01353
3580.18840	0.01365
3578.12846	0.01369
3576.06851	0.01366
3574.00856	0.01365
3571.94861	0.01375
3569.88867	0.01401
3567.82872	0.01424
3565.76877	0.01397
3563.70882	0.01361
3561.64888	0.01362
3559.58893	0.01378
3557.52898	0.01387
3555.46903	0.01390
3553.40909	0.01392
3551.34914	0.01392
3549.28919	0.01400
3547.22925	0.01417
3545.16930	0.01425
3543.10935	0.01420
3541.04940	0.01414
3538.98946	0.01414
3536.92951	0.01420
3534.86956	0.01423
3532.80961	0.01427
3530.74967	0.01438
3528.68972	0.01449
3526.62977	0.01460
3524.56983	0.01470
3522.50988	0.01463
3520.44993	0.01447
3518.38998	0.01446
3516.33004	0.01450
3514.27009	0.01447
3512.21014	0.01448
3510.15019	0.01460
3508.09025	0.01476
3506.03030	0.01484
3503.97035	0.01480
3501.91041	0.01468
3499.85046	0.01462
3497.79051	0.01459
3495.73056	0.01455
3493.67062	0.01456
3491.61067	0.01463
3489.55072	0.01472
3487.49077	0.01477
3485.43083	0.01482
3483.37088	0.01496
3481.31093	0.01509
3479.25098	0.01508
3477.19104	0.01501
3475.13109	0.01498
3473.07114	0.01501
3471.01120	0.01503
3468.95125	0.01502
3466.89130	0.01502
3464.83135	0.01509
3462.77141	0.01522
3460.71146	0.01530
3458.65151	0.01531
3456.59156	0.01533
3454.53162	0.01539
3452.47167	0.01542
3450.41172	0.01541
3448.35178	0.01544
3446.29183	0.01546
3444.23188	0.01543
3442.17193	0.01540
3440.11199	0.01537
3438.05204	0.01534
3435.99209	0.01536
3433.93214	0.01541
3431.87220	0.01542
3429.81225	0.01544
3427.75230	0.01548
3425.69236	0.01552
3423.63241	0.01553
3421.57246	0.01553
3419.51251	0.01554
3417.45257	0.01560
3415.39262	0.01565
3413.33267	0.01566
3411.27272	0.01568
3409.21278	0.01573
3407.15283	0.01572
3405.09288	0.01566
3403.03293	0.01569
3400.97299	0.01577
3398.91304	0.01573
3396.85309	0.01566
3394.79315	0.01569
3392.73320	0.01570
3390.67325	0.01563
3388.61330	0.01565
3386.55336	0.01576
3384.49341	0.01574
3382.43346	0.01563
3380.37351	0.01561
3378.31357	0.01562
3376.25362	0.01563
3374.19367	0.01573
3372.13373	0.01582
3370.07378	0.01584
3368.01383	0.01583
3365.95388	0.01586
3363.89394	0.01591
3361.83399	0.01589
3359.77404	0.01585
3357.71409	0.01582
3355.65415	0.01585
3353.59420	0.01590
3351.53425	0.01584
3349.47431	0.01576
3347.41436	0.01581
3345.35441	0.01588
3343.29446	0.01591
3341.23452	0.01597
3339.17457	0.01604
3337.11462	0.01610
3335.05467	0.01614
3332.99473	0.01613
3330.93478	0.01609
3328.87483	0.01602
3326.81488	0.01593
3324.75494	0.01585
3322.69499	0.01590
3320.63504	0.01597
3318.57510	0.01601
3316.51515	0.01609
3314.45520	0.01615
3312.39525	0.01616
3310.33531	0.01616
3308.27536	0.01614
3306.21541	0.01611
3304.15546	0.01608
3302.09552	0.01605
3300.03557	0.01604
3297.97562	0.01607
3295.91568	0.01608
3293.85573	0.01611
3291.79578	0.01618
3289.73583	0.01623
3287.67589	0.01621
3285.61594	0.01619
3283.55599	0.01614
3281.49604	0.01607
3279.43610	0.01611
3277.37615	0.01619
3275.31620	0.01622
3273.25626	0.01623
3271.19631	0.01624
3269.13636	0.01626
3267.07641	0.01626
3265.01647	0.01627
3262.95652	0.01629
3260.89657	0.01630
3258.83662	0.01631
3256.77668	0.01631
3254.71673	0.01628
3252.65678	0.01623
3250.59683	0.01619
3248.53689	0.01616
3246.47694	0.01616
3244.41699	0.01617
3242.35705	0.01615
3240.29710	0.01617
3238.23715	0.01620
3236.17720	0.01619
3234.11726	0.01616
3232.05731	0.01616
3229.99736	0.01618
3227.93741	0.01615
3225.87747	0.01609
3223.81752	0.01610
3221.75757	0.01615
3219.69763	0.01615
3217.63768	0.01611
3215.57773	0.01606
3213.51778	0.01606
3211.45784	0.01612
3209.39789	0.01617
3207.33794	0.01618
3205.27799	0.01613
3203.21805	0.01604
3201.15810	0.01600
3199.09815	0.01604
3197.03821	0.01609
3194.97826	0.01608
3192.91831	0.01604
3190.85836	0.01598
3188.79842	0.01595
3186.73847	0.01596
3184.67852	0.01598
3182.61857	0.01597
3180.55863	0.01590
3178.49868	0.01585
3176.43873	0.01588
3174.37878	0.01596
3172.31884	0.01594
3170.25889	0.01583
3168.19894	0.01580
3166.13900	0.01585
3164.07905	0.01589
3162.01910	0.01593
3159.95915	0.01592
3157.89921	0.01586
3155.83926	0.01584
3153.77931	0.01583
3151.71936	0.01578
3149.65942	0.01568
3147.59947	0.01561
3145.53952	0.01565
3143.47958	0.01569
3141.41963	0.01567
3139.35968	0.01563
3137.29973	0.01562
3135.23979	0.01560
3133.17984	0.01556
3131.11989	0.01553
3129.05994	0.01552
3127.00000	0.01551
3124.94005	0.01549
3122.88010	0.01551
3120.82016	0.01553
3118.76021	0.01548
3116.70026	0.01545
3114.64031	0.01546
3112.58037	0.01543
3110.52042	0.01540
3108.46047	0.01541
3106.40052	0.01540
3104.34058	0.01541
3102.28063	0.01546
3100.22068	0.01551
3098.16073	0.01554
3096.10079	0.01556
3094.04084	0.01556
3091.98089	0.01553
3089.92095	0.01549
3087.86100	0.01546
3085.80105	0.01543
3083.74110	0.01544
3081.68116	0.01546
3079.62121	0.01548
3077.56126	0.01553
3075.50131	0.01558
3073.44137	0.01561
3071.38142	0.01557
3069.32147	0.01546
3067.26153	0.01544
3065.20158	0.01551
3063.14163	0.01552
3061.08168	0.01546
3059.02174	0.01544
3056.96179	0.01544
3054.90184	0.01541
3052.84189	0.01538
3050.78195	0.01541
3048.72200	0.01544
3046.66205	0.01542
3044.60211	0.01540
3042.54216	0.01537
3040.48221	0.01537
3038.42226	0.01543
3036.36232	0.01549
3034.30237	0.01551
3032.24242	0.01552
3030.18247	0.01560
3028.12253	0.01569
3026.06258	0.01575
3024.00263	0.01585
3021.94268	0.01599
3019.88274	0.01607
3017.82279	0.01611
3015.76284	0.01617
3013.70290	0.01627
3011.64295	0.01642
3009.58300	0.01653
3007.52305	0.01659
3005.46311	0.01671
3003.40316	0.01689
3001.34321	0.01703
2999.28326	0.01714
2997.22332	0.01724
2995.16337	0.01732
2993.10342	0.01744
2991.04348	0.01765
2988.98353	0.01780
2986.92358	0.01781
2984.86363	0.01779
2982.80369	0.01778
2980.74374	0.01777
2978.68379	0.01780
2976.62384	0.01787
2974.56390	0.01788
2972.50395	0.01786
2970.44400	0.01786
2968.38406	0.01783
2966.32411	0.01773
2964.26416	0.01762
2962.20421	0.01754
2960.14427	0.01744
2958.08432	0.01735
2956.02437	0.01728
2953.96442	0.01724
2951.90448	0.01719
2949.84453	0.01712
2947.78458	0.01713
2945.72463	0.01721
2943.66469	0.01723
2941.60474	0.01715
2939.54479	0.01714
2937.48485	0.01726
2935.42490	0.01736
2933.36495	0.01736
2931.30500	0.01738
2929.24506	0.01749
2927.18511	0.01760
2925.12516	0.01767
2923.06521	0.01774
2921.00527	0.01779
2918.94532	0.01778
2916.88537	0.01767
2914.82543	0.01757
2912.76548	0.01756
2910.70553	0.01757
2908.64558	0.01756
2906.58564	0.01755
2904.52569	0.01756
2902.46574	0.01758
2900.40579	0.01753
2898.34585	0.01736
2896.28590	0.01717
2894.22595	0.01706
2892.16601	0.01701
2890.10606	0.01695
2888.04611	0.01689
2885.98616	0.01684
2883.92622	0.01676
2881.86627	0.01667
2879.80632	0.01659
2877.74637	0.01645
2875.68643	0.01630
2873.62648	0.01620
2871.56653	0.01615
2869.50658	0.01608
2867.44664	0.01599
2865.38669	0.01590
2863.32674	0.01582
2861.26680	0.01574
2859.20685	0.01563
2857.14690	0.01556
2855.08695	0.01558
2853.02701	0.01565
2850.96706	0.01569
2848.90711	0.01563
2846.84716	0.01544
2844.78722	0.01522
2842.72727	0.01509
2840.66732	0.01498
2838.60738	0.01485
2836.54743	0.01476
2834.48748	0.01469
2832.42753	0.01460
2830.36759	0.01455
2828.30764	0.01453
2826.24769	0.01449
2824.18774	0.01446
2822.12780	0.01445
2820.06785	0.01444
2818.00790	0.01441
2815.94796	0.01434
2813.88801	0.01426
2811.82806	0.01421
2809.76811	0.01418
2807.70817	0.01416
2805.64822	0.01412
2803.58827	0.01405
2801.52832	0.01400
2799.46838	0.01397
2797.40843	0.01394
2795.34848	0.01390
2793.28853	0.01384
2791.22859	0.01379
2789.16864	0.01377
2787.10869	0.01381
2785.04875	0.01385
2782.98880	0.01382
2780.92885	0.01376
2778.86890	0.01372
2776.80896	0.01371
2774.74901	0.01370
2772.68906	0.01367
2770.62911	0.01361
2768.56917	0.01353
2766.50922	0.01349
2764.44927	0.01351
2762.38933	0.01351
2760.32938	0.01347
2758.26943	0.01341
2756.20948	0.01335
2754.14954	0.01335
2752.08959	0.01339
2750.02964	0.01339
2747.96969	0.01337
2745.90975	0.01334
2743.84980	0.01333
2741.78985	0.01332
2739.72991	0.01330
2737.66996	0.01326
2735.61001	0.01321
2733.55006	0.01315
2731.49012	0.01312
2729.43017	0.01311
2727.37022	0.01309
2725.31027	0.01301
2723.25033	0.01293
2721.19038	0.01292
2719.13043	0.01298
2717.07048	0.01302
2715.01054	0.01303
2712.95059	0.01300
2710.89064	0.01294
2708.83070	0.01290
2706.77075	0.01287
2704.71080	0.01284
2702.65085	0.01281
2700.59091	0.01280
2698.53096	0.01277
2696.47101	0.01273
2694.41106	0.01267
2692.35112	0.01265
2690.29117	0.01266
2688.23122	0.01269
2686.17128	0.01269
2684.11133	0.01267
2682.05138	0.01265
2679.99143	0.01264
2677.93149	0.01262
2675.87154	0.01262
2673.81159	0.01263
2671.75164	0.01266
2669.69170	0.01271
2667.63175	0.01282
2665.57180	0.01298
2663.51186	0.01315
2661.45191	0.01328
2659.39196	0.01340
2657.33201	0.01350
2655.27207	0.01355
2653.21212	0.01355
2651.15217	0.01359
2649.09222	0.01364
2647.03228	0.01367
2644.97233	0.01365
2642.91238	0.01356
2640.85243	0.01345
2638.79249	0.01335
2636.73254	0.01329
2634.67259	0.01326
2632.61265	0.01324
2630.55270	0.01322
2628.49275	0.01318
2626.43280	0.01312
2624.37286	0.01304
2622.31291	0.01294
2620.25296	0.01283
2618.19301	0.01276
2616.13307	0.01278
2614.07312	0.01280
2612.01317	0.01278
2609.95323	0.01271
2607.89328	0.01264
2605.83333	0.01257
2603.77338	0.01248
2601.71344	0.01244
2599.65349	0.01244
2597.59354	0.01238
2595.53359	0.01229
2593.47365	0.01217
2591.41370	0.01205
2589.35375	0.01201
2587.29381	0.01199
2585.23386	0.01193
2583.17391	0.01189
2581.11396	0.01189
2579.05402	0.01187
2576.99407	0.01183
2574.93412	0.01181
2572.87417	0.01178
2570.81423	0.01169
2568.75428	0.01160
2566.69433	0.01157
2564.63438	0.01153
2562.57444	0.01149
2560.51449	0.01146
2558.45454	0.01143
2556.39460	0.01139
2554.33465	0.01134
2552.27470	0.01131
2550.21475	0.01128
2548.15481	0.01119
2546.09486	0.01110
2544.03491	0.01107
2541.97496	0.01110
2539.91502	0.01116
2537.85507	0.01122
2535.79512	0.01119
2533.73518	0.01111
2531.67523	0.01105
2529.61528	0.01098
2527.55533	0.01090
2525.49539	0.01089
2523.43544	0.01099
2521.37549	0.01108
2519.31554	0.01106
2517.25560	0.01100
2515.19565	0.01099
2513.13570	0.01098
2511.07576	0.01087
2509.01581	0.01071
2506.95586	0.01067
2504.89591	0.01073
2502.83597	0.01070
2500.77602	0.01063
2498.71607	0.01066
2496.65612	0.01076
2494.59618	0.01082
2492.53623	0.01077
2490.47628	0.01066
2488.41633	0.01053
2486.35639	0.01047
2484.29644	0.01051
2482.23649	0.01057
2480.17655	0.01060
2478.11660	0.01063
2476.05665	0.01068
2473.99670	0.01068
2471.93676	0.01065
2469.87681	0.01061
2467.81686	0.01063
2465.75691	0.01069
2463.69697	0.01066
2461.63702	0.01059
2459.57707	0.01062
2457.51713	0.01073
2455.45718	0.01080
2453.39723	0.01079
2451.33728	0.01076
2449.27734	0.01067
2447.21739	0.01054
2445.15744	0.01049
2443.09749	0.01049
2441.03755	0.01046
2438.97760	0.01043
2436.91765	0.01035
2434.85771	0.01024
2432.79776	0.01024
2430.73781	0.01029
2428.67786	0.01025
2426.61792	0.01016
2424.55797	0.01007
2422.49802	0.01000
2420.43807	0.01002
2418.37813	0.01006
2416.31818	0.00998
2414.25823	0.00986
2412.19828	0.00981
2410.13834	0.00975
2408.07839	0.00960
2406.01844	0.00945
2403.95850	0.00944
2401.89855	0.00949
2399.83860	0.00951
2397.77865	0.00947
2395.71871	0.00941
2393.65876	0.00938
2391.59881	0.00938
2389.53886	0.00938
2387.47892	0.00935
2385.41897	0.00935
2383.35902	0.00943
2381.29908	0.00960
2379.23913	0.00980
2377.17918	0.00995
2375.11923	0.01001
2373.05929	0.00999
2370.99934	0.01006
2368.93939	0.01034
2366.87944	0.01078
2364.81950	0.01119
2362.75955	0.01145
2360.69960	0.01169
2358.63966	0.01187
2356.57971	0.01182
2354.51976	0.01155
2352.45981	0.01124
2350.39987	0.01099
2348.33992	0.01094
2346.27997	0.01117
2344.22002	0.01147
2342.16008	0.01152
2340.10013	0.01141
2338.04018	0.01133
2335.98023	0.01132
2333.92029	0.01138
2331.86034	0.01160
2329.80039	0.01215
2327.74045	0.01321
2325.68050	0.01422
2323.62055	0.01425
2321.56060	0.01353
2319.50066	0.01285
2317.44071	0.01246
2315.38076	0.01226
2313.32081	0.01212
2311.26087	0.01198
2309.20092	0.01184
2307.14097	0.01171
2305.08103	0.01160
2303.02108	0.01153
2300.96113	0.01153
2298.90118	0.01154
2296.84124	0.01161
2294.78129	0.01178
2292.72134	0.01200
2290.66139	0.01220
2288.60145	0.01229
2286.54150	0.01219
2284.48155	0.01190
2282.42161	0.01160
2280.36166	0.01139
2278.30171	0.01122
2276.24176	0.01095
2274.18182	0.01065
2272.12187	0.01060
2270.06192	0.01062
2268.00197	0.01039
2265.94203	0.01011
2263.88208	0.01004
2261.82213	0.01011
2259.76218	0.01017
2257.70224	0.00997
2255.64229	0.00954
2253.58234	0.00936
2251.52240	0.00944
2249.46245	0.00946
2247.40250	0.00951
2245.34255	0.00971
2243.28261	0.00980
2241.22266	0.00974
2239.16271	0.00969
2237.10276	0.00969
2235.04282	0.00963
2232.98287	0.00948
2230.92292	0.00943
2228.86298	0.00944
2226.80303	0.00933
2224.74308	0.00912
2222.68313	0.00895
2220.62319	0.00874
2218.56324	0.00841
2216.50329	0.00818
2214.44334	0.00825
2212.38340	0.00846
2210.32345	0.00860
2208.26350	0.00872
2206.20356	0.00895
2204.14361	0.00896
2202.08366	0.00861
2200.02371	0.00836
2197.96377	0.00846
2195.90382	0.00859
2193.84387	0.00864
2191.78392	0.00873
2189.72398	0.00879
2187.66403	0.00875
2185.60408	0.00853
2183.54413	0.00803
2181.48419	0.00773
2179.42424	0.00762
2177.36429	0.00705
2175.30435	0.00666
2173.24440	0.00744
2171.18445	0.00871
2169.12450	0.00964
2167.06456	0.01013
2165.00461	0.01030
2162.94466	0.00954
2160.88471	0.00630
2158.82477	0.00228
2156.76482	0.00114
2154.70487	0.00205
2152.64493	0.00316
2150.58498	0.00404
2148.52503	0.00427
2146.46508	0.00397
2144.40514	0.00380
2142.34519	0.00396
2140.28524	0.00424
2138.22529	0.00424
2136.16535	0.00369
2134.10540	0.00319
2132.04545	0.00346
2129.98551	0.00424
2127.92556	0.00498
2125.86561	0.00560
2123.80566	0.00611
2121.74572	0.00659
2119.68577	0.00711
2117.62582	0.00766
2115.56587	0.00805
2113.50593	0.00814
2111.44598	0.00810
2109.38603	0.00813
2107.32608	0.00817
2105.26614	0.00810
2103.20619	0.00794
2101.14624	0.00776
2099.08630	0.00754
2097.02635	0.00713
2094.96640	0.00677
2092.90645	0.00683
2090.84651	0.00718
2088.78656	0.00756
2086.72661	0.00793
2084.66666	0.00825
2082.60672	0.00844
2080.54677	0.00858
2078.48682	0.00866
2076.42688	0.00856
2074.36693	0.00842
2072.30698	0.00838
2070.24703	0.00825
2068.18709	0.00809
2066.12714	0.00811
2064.06719	0.00816
2062.00724	0.00817
2059.94730	0.00822
2057.88735	0.00830
2055.82740	0.00847
2053.76746	0.00919
2051.70751	0.01015
2049.64756	0.01001
2047.58761	0.00901
2045.52767	0.00839
2043.46772	0.00840
2041.40777	0.00877
2039.34782	0.00897
2037.28788	0.00868
2035.22793	0.00800
2033.16798	0.00738
2031.10803	0.00688
2029.04809	0.00621
2026.98814	0.00575
2024.92819	0.00594
2022.86825	0.00641
2020.80830	0.00651
2018.74835	0.00626
2016.68840	0.00604
2014.62846	0.00602
2012.56851	0.00611
2010.50856	0.00602
2008.44861	0.00563
2006.38867	0.00530
2004.32872	0.00551
2002.26877	0.00610
2000.20883	0.00664
1998.14888	0.00697
1996.08893	0.00731
1994.02898	0.00774
1991.96904	0.00801
1989.90909	0.00808
1987.84914	0.00817
1985.78919	0.00855
1983.72925	0.00951
1981.66930	0.01022
1979.60935	0.00921
1977.54941	0.00709
1975.48946	0.00593
1973.42951	0.00578
1971.36956	0.00573
1969.30962	0.00573
1967.24967	0.00583
1965.18972	0.00587
1963.12977	0.00586
1961.06983	0.00555
1959.00988	0.00511
1956.94993	0.00524
1954.88998	0.00579
1952.83004	0.00611
1950.77009	0.00609
1948.71014	0.00591
1946.65020	0.00571
1944.59025	0.00574
1942.53030	0.00597
1940.47035	0.00615
1938.41041	0.00637
1936.35046	0.00652
1934.29051	0.00639
1932.23056	0.00624
1930.17062	0.00625
1928.11067	0.00625
1926.05072	0.00621
1923.99078	0.00637
1921.93083	0.00669
1919.87088	0.00686
1917.81093	0.00683
1915.75099	0.00686
1913.69104	0.00697
1911.63109	0.00703
1909.57114	0.00705
1907.51120	0.00713
1905.45125	0.00730
1903.39130	0.00748
1901.33136	0.00754
1899.27141	0.00755
1897.21146	0.00749
1895.15151	0.00734
1893.09157	0.00734
1891.03162	0.00744
1888.97167	0.00747
1886.91172	0.00755
1884.85178	0.00769
1882.79183	0.00771
1880.73188	0.00766
1878.67193	0.00769
1876.61199	0.00776
1874.55204	0.00780
1872.49209	0.00789
1870.43215	0.00809
1868.37220	0.00815
1866.31225	0.00791
1864.25230	0.00774
1862.19236	0.00774
1860.13241	0.00774
1858.07246	0.00769
1856.01251	0.00764
1853.95257	0.00757
1851.89262	0.00749
1849.83267	0.00745
1847.77273	0.00741
1845.71278	0.00735
1843.65283	0.00718
1841.59288	0.00704
1839.53294	0.00712
1837.47299	0.00727
1835.41304	0.00729
1833.35309	0.00726
1831.29315	0.00732
1829.23320	0.00736
1827.17325	0.00729
1825.11331	0.00728
1823.05336	0.00727
1820.99341	0.00710
1818.93346	0.00682
1816.87352	0.00671
1814.81357	0.00693
1812.75362	0.00728
1810.69367	0.00749
1808.63373	0.00755
1806.57378	0.00758
1804.51383	0.00764
1802.45388	0.00774
1800.39394	0.00782
1798.33399	0.00784
1796.27404	0.00786
1794.21410	0.00795
1792.15415	0.00802
1790.09420	0.00798
1788.03425	0.00797
1785.97431	0.00798
1783.91436	0.00799
1781.85441	0.00798
1779.79446	0.00793
1777.73452	0.00787
1775.67457	0.00792
1773.61462	0.00809
1771.55468	0.00813
1769.49473	0.00801
1767.43478	0.00791
1765.37483	0.00792
1763.31489	0.00805
1761.25494	0.00813
1759.19499	0.00812
1757.13504	0.00813
1755.07510	0.00815
1753.01515	0.00826
1750.95520	0.00844
1748.89526	0.00850
1746.83531	0.00845
1744.77536	0.00845
1742.71541	0.00851
1740.65547	0.00859
1738.59552	0.00866
1736.53557	0.00880
1734.47562	0.00898
1732.41568	0.00895
1730.35573	0.00886
1728.29578	0.00887
1726.23583	0.00891
1724.17589	0.00901
1722.11594	0.00921
1720.05599	0.00950
1717.99605	0.00974
1715.93610	0.00970
1713.87615	0.00961
1711.81620	0.00963
1709.75626	0.00974
1707.69631	0.00993
1705.63636	0.01011
1703.57641	0.01024
1701.51647	0.01048
1699.45652	0.01068
1697.39657	0.01066
1695.33663	0.01059
1693.27668	0.01060
1691.21673	0.01080
1689.15678	0.01108
1687.09684	0.01133
1685.03689	0.01150
1682.97694	0.01140
1680.91699	0.01136
1678.85705	0.01155
1676.79710	0.01181
1674.73715	0.01204
1672.67721	0.01223
1670.61726	0.01234
1668.55731	0.01222
1666.49736	0.01218
1664.43742	0.01239
1662.37747	0.01252
1660.31752	0.01251
1658.25757	0.01265
1656.19763	0.01300
1654.13768	0.01333
1652.07773	0.01322
1650.01778	0.01328
1647.95784	0.01358
1645.89789	0.01351
1643.83794	0.01332
1641.77800	0.01341
1639.71805	0.01368
1637.65810	0.01402
1635.59815	0.01408
1633.53821	0.01386
1631.47826	0.01391
1629.41831	0.01412
1627.35836	0.01429
1625.29842	0.01438
1623.23847	0.01438
1621.17852	0.01437
1619.11858	0.01453
1617.05863	0.01468
1614.99868	0.01457
1612.93873	0.01454
1610.87879	0.01462
1608.81884	0.01464
1606.75889	0.01459
1604.69894	0.01456
1602.63900	0.01453
1600.57905	0.01449
1598.51910	0.01449
1596.45916	0.01451
1594.39921	0.01446
1592.33926	0.01437
1590.27931	0.01434
1588.21937	0.01434
1586.15942	0.01432
1584.09947	0.01428
1582.03952	0.01425
1579.97958	0.01430
1577.91963	0.01441
1575.85968	0.01433
1573.79973	0.01415
1571.73979	0.01417
1569.67984	0.01409
1567.61989	0.01389
1565.55995	0.01387
1563.50000	0.01396
1561.44005	0.01414
1559.38010	0.01414
1557.32016	0.01364
1555.26021	0.01350
1553.20026	0.01350
1551.14031	0.01343
1549.08037	0.01334
1547.02042	0.01337
1544.96047	0.01360
1542.90053	0.01385
1540.84058	0.01374
1538.78063	0.01314
1536.72068	0.01295
1534.66074	0.01305
1532.60079	0.01297
1530.54084	0.01285
1528.48089	0.01293
1526.42095	0.01300
1524.36100	0.01301
1522.30105	0.01298
1520.24111	0.01275
1518.18116	0.01252
1516.12121	0.01234
1514.06126	0.01223
1512.00132	0.01230
1509.94137	0.01251
1507.88142	0.01264
1505.82147	0.01220
1503.76153	0.01180
1501.70158	0.01175
1499.64163	0.01182
1497.58168	0.01182
1495.52174	0.01171
1493.46179	0.01170
1491.40184	0.01183
1489.34190	0.01187
1487.28195	0.01175
1485.22200	0.01167
1483.16205	0.01167
1481.10211	0.01169
1479.04216	0.01181
1476.98221	0.01206
1474.92226	0.01239
1472.86232	0.01255
1470.80237	0.01245
1468.74242	0.01244
1466.68248	0.01257
1464.62253	0.01263
1462.56258	0.01266
1460.50263	0.01292
1458.44269	0.01328
1456.38274	0.01328
1454.32279	0.01310
1452.26284	0.01313
1450.20290	0.01324
1448.14295	0.01328
1446.08300	0.01318
1444.02306	0.01310
1441.96311	0.01313
1439.90316	0.01325
1437.84321	0.01343
1435.78327	0.01346
1433.72332	0.01341
1431.66337	0.01346
1429.60342	0.01346
1427.54348	0.01342
1425.48353	0.01351
1423.42358	0.01369
1421.36363	0.01389
1419.30369	0.01404
1417.24374	0.01401
1415.18379	0.01398
1413.12385	0.01406
1411.06390	0.01417
1409.00395	0.01423
1406.94400	0.01426
1404.88406	0.01420
1402.82411	0.01411
1400.76416	0.01409
1398.70421	0.01405
1396.64427	0.01407
1394.58432	0.01414
1392.52437	0.01400
1390.46443	0.01379
1388.40448	0.01371
1386.34453	0.01370
1384.28458	0.01368
1382.22464	0.01369
1380.16469	0.01370
1378.10474	0.01371
1376.04479	0.01367
1373.98485	0.01352
1371.92490	0.01331
1369.86495	0.01316
1367.80501	0.01304
1365.74506	0.01299
1363.68511	0.01295
1361.62516	0.01280
1359.56522	0.01264
1357.50527	0.01253
1355.44532	0.01242
1353.38537	0.01232
1351.32543	0.01227
1349.26548	0.01221
1347.20553	0.01212
1345.14558	0.01208
1343.08564	0.01211
1341.02569	0.01214
1338.96574	0.01210
1336.90580	0.01201
1334.84585	0.01195
1332.78590	0.01196
1330.72595	0.01194
1328.66601	0.01185
1326.60606	0.01179
1324.54611	0.01180
1322.48616	0.01187
1320.42622	0.01196
1318.36627	0.01202
1316.30632	0.01201
1314.24638	0.01199
1312.18643	0.01197
1310.12648	0.01195
1308.06653	0.01194
1306.00659	0.01196
1303.94664	0.01201
1301.88669	0.01211
1299.82674	0.01220
1297.76680	0.01226
1295.70685	0.01234
1293.64690	0.01246
1291.58696	0.01258
1289.52701	0.01269
1287.46706	0.01285
1285.40711	0.01303
1283.34717	0.01322
1281.28722	0.01338
1279.22727	0.01353
1277.16732	0.01367
1275.10738	0.01383
1273.04743	0.01401
1270.98748	0.01419
1268.92753	0.01436
1266.86759	0.01454
1264.80764	0.01472
1262.74769	0.01494
1260.68775	0.01518
1258.62780	0.01540
1256.56785	0.01564
1254.50790	0.01593
1252.44796	0.01626
1250.38801	0.01664
1248.32806	0.01700
1246.26811	0.01728
1244.20817	0.01759
1242.14822	0.01796
1240.08827	0.01829
1238.02833	0.01863
1235.96838	0.01909
1233.90843	0.01964
1231.84848	0.02023
1229.78854	0.02086
1227.72859	0.02153
1225.66864	0.02235
1223.60869	0.02340
1221.54875	0.02462
1219.48880	0.02598
1217.42885	0.02749
1215.36891	0.02906
1213.30896	0.03061
1211.24901	0.03220
1209.18906	0.03379
1207.12912	0.03528
1205.06917	0.03668
1203.00922	0.03803
1200.94927	0.03928
1198.88933	0.04040
1196.82938	0.04147
1194.76943	0.04253
1192.70949	0.04352
1190.64954	0.04442
1188.58959	0.04527
1186.52964	0.04613
1184.46970	0.04707
1182.40975	0.04808
1180.34980	0.04915
1178.28985	0.05038
1176.22991	0.05183
1174.16996	0.05350
1172.11001	0.05538
1170.05006	0.05745
1167.99012	0.05967
1165.93017	0.06178
1163.87022	0.06330
1161.81028	0.06366
1159.75033	0.06279
1157.69038	0.06158
1155.63043	0.06101
1153.57049	0.06136
1151.51054	0.06238
1149.45059	0.06370
1147.39064	0.06514
1145.33070	0.06671
1143.27075	0.06839
1141.21080	0.07015
1139.15086	0.07200
1137.09091	0.07398
1135.03096	0.07608
1132.97101	0.07825
1130.91107	0.08051
1128.85112	0.08286
1126.79117	0.08529
1124.73122	0.08784
1122.67128	0.09048
1120.61133	0.09317
1118.55138	0.09590
1116.49144	0.09868
1114.43149	0.10154
1112.37154	0.10447
1110.31159	0.10752
1108.25165	0.11068
1106.19170	0.11389
1104.13175	0.11716
1102.07180	0.12044
1100.01186	0.12372
1097.95191	0.12712
1095.89196	0.13053
1093.83201	0.13384
1091.77207	0.13709
1089.71212	0.14025
1087.65217	0.14310
1085.59223	0.14552
1083.53228	0.14740
1081.47233	0.14877
1079.41238	0.14969
1077.35244	0.14991
1075.29249	0.14928
1073.23254	0.14795
1071.17259	0.14640
1069.11265	0.14520
1067.05270	0.14445
1064.99275	0.14365
1062.93281	0.14252
1060.87286	0.14125
1058.81291	0.13988
1056.75296	0.13823
1054.69302	0.13636
1052.63307	0.13446
1050.57312	0.13255
1048.51317	0.13066
1046.45323	0.12890
1044.39328	0.12739
1042.33333	0.12616
1040.27339	0.12503
1038.21344	0.12386
1036.15349	0.12255
1034.09354	0.12111
1032.03360	0.11958
1029.97365	0.11814
1027.91370	0.11684
1025.85375	0.11544
1023.79381	0.11392
1021.73386	0.11251
1019.67391	0.11121
1017.61396	0.11001
1015.55402	0.10893
1013.49407	0.10789
1011.43412	0.10679
1009.37418	0.10568
1007.31423	0.10463
1005.25428	0.10354
1003.19433	0.10235
1001.13439	0.10109
999.07444	0.09979
997.01449	0.09850
994.95454	0.09719
992.89460	0.09586
990.83465	0.09460
988.77470	0.09339
986.71476	0.09215
984.65481	0.09094
982.59486	0.08971
980.53491	0.08840
978.47497	0.08706
976.41502	0.08576
974.35507	0.08447
972.29512	0.08314
970.23518	0.08184
968.17523	0.08067
966.11528	0.07953
964.05534	0.07836
961.99539	0.07714
959.93544	0.07587
957.87549	0.07466
955.81555	0.07355
953.75560	0.07246
951.69565	0.07142
949.63570	0.07047
947.57576	0.06954
945.51581	0.06857
943.45586	0.06765
941.39591	0.06686
939.33597	0.06612
937.27602	0.06535
935.21607	0.06452
933.15613	0.06366
931.09618	0.06288
929.03623	0.06214
926.97628	0.06143
924.91634	0.06076
922.85639	0.06012
920.79644	0.05947
918.73649	0.05884
916.67655	0.05825
914.61660	0.05764
912.55665	0.05702
910.49671	0.05635
908.43676	0.05556
906.37681	0.05462
904.31686	0.05362
902.25692	0.05267
900.19697	0.05179
898.13702	0.05097
896.07707	0.05015
894.01713	0.04926
891.95718	0.04830
889.89723	0.04738
887.83729	0.04662
885.77734	0.04596
883.71739	0.04527
881.65744	0.04456
879.59750	0.04381
877.53755	0.04298
875.47760	0.04214
873.41765	0.04137
871.35771	0.04059
869.29776	0.03970
867.23781	0.03885
865.17786	0.03814
863.11792	0.03748
861.05797	0.03675
858.99802	0.03596
856.93808	0.03514
854.87813	0.03432
852.81818	0.03358
850.75823	0.03299
848.69829	0.03242
846.63834	0.03176
844.57839	0.03116
842.51844	0.03074
840.45850	0.03054
838.39855	0.03036
836.33860	0.03009
834.27866	0.02986
832.21871	0.02970
830.15876	0.02960
828.09881	0.02963
826.03887	0.02984
823.97892	0.03023
821.91897	0.03080
819.85902	0.03155
817.79908	0.03257
815.73913	0.03406
813.67918	0.03627
811.61924	0.03963
809.55929	0.04473
807.49934	0.05191
805.43939	0.06072
803.37945	0.07011
801.31950	0.07880
799.25955	0.08538
797.19960	0.08853
795.13966	0.08817
793.07971	0.08576
791.01976	0.08319
788.95981	0.08186
786.89987	0.08262
784.83992	0.08571
782.77997	0.09041
780.72003	0.09500
778.66008	0.09742
776.60013	0.09654
774.54018	0.09293
772.48024	0.08811
770.42029	0.08333
768.36034	0.07909
766.30039	0.07533
764.24045	0.07194
762.18050	0.06896
760.12055	0.06633
758.06061	0.06389
756.00066	0.06166
753.94071	0.05975
751.88076	0.05801
749.82082	0.05631
747.76087	0.05472
745.70092	0.05328
743.64097	0.05192
741.58103	0.05066
739.52108	0.04956
737.46113	0.04850
735.40119	0.04742
733.34124	0.04652
731.28129	0.04581
729.22134	0.04512
727.16140	0.04446
725.10145	0.04386
723.04150	0.04329
720.98155	0.04273
718.92161	0.04220
716.86166	0.04171
714.80171	0.04137
712.74176	0.04123
710.68182	0.04128
708.62187	0.04154
706.56192	0.04205
704.50198	0.04296
702.44203	0.04480
700.38208	0.04837
698.32213	0.05361
696.26219	0.05858
694.20224	0.06055
692.14229	0.05896
690.08234	0.05558
688.02240	0.05217
685.96245	0.04937
683.90250	0.04710
681.84256	0.04518
679.78261	0.04359
677.72266	0.04229
675.66271	0.04125
673.60277	0.04047
671.54282	0.04003
669.48287	0.03967
667.42292	0.03871
665.36298	0.03768
663.30303	0.03701
661.24308	0.03642
659.18314	0.03593
657.12319	0.03557
655.06324	0.03527
653.00329	0.03493
650.94335	0.03453
648.88340	0.03416
646.82345	0.03391
644.76350	0.03369
642.70356	0.03341
640.64361	0.03315
638.58366	0.03287
636.52371	0.03255
634.46377	0.03233
632.40382	0.03218
630.34387	0.03195
628.28393	0.03176
626.22398	0.03167
624.16403	0.03154
622.10408	0.03134
620.04414	0.03107
617.98419	0.03080
615.92424	0.03063
613.86429	0.03058
611.80435	0.03060
609.74440	0.03053
607.68445	0.03040
605.62451	0.03042
603.56456	0.03049
601.50461	0.03041
599.44466	0.03027
597.38472	0.03024
595.32477	0.03020
593.26482	0.03011
591.20487	0.03018
589.14493	0.03035
587.08498	0.03056
585.02503	0.03078
582.96509	0.03088
580.90514	0.03086
578.84519	0.03091
576.78524	0.03112
574.72530	0.03133
572.66535	0.03147
570.60540	0.03166
568.54545	0.03195
566.48551	0.03239
564.42556	0.03284
562.36561	0.03308
560.30566	0.03320
558.24572	0.03350
556.18577	0.03426
554.12582	0.03548
552.06588	0.03688
550.00593	0.03832
547.94598	0.03998
545.88603	0.04219
543.82609	0.04506
541.76614	0.04855
539.70619	0.05244
537.64624	0.05654
535.58630	0.06087
533.52635	0.06551
531.46640	0.06993
529.40646	0.07365
527.34651	0.07699
525.28656	0.08023
523.22661	0.08290
521.16667	0.08479
519.10672	0.08596
517.04677	0.08645
514.98682	0.08637
512.92688	0.08566
510.86693	0.08430
508.80698	0.08284
506.74704	0.08221
504.68709	0.08290
502.62714	0.08504
500.56719	0.08845
498.50725	0.09256
496.44730	0.09704
494.38735	0.10173
492.32740	0.10649
490.26746	0.11109
488.20751	0.11570
486.14756	0.12073
484.08761	0.12622
482.02767	0.13183
479.96772	0.13726
477.90777	0.14280
475.84783	0.14877
473.78788	0.15515
471.72793	0.16187
469.66798	0.16804
467.60804	0.17358
465.54809	0.17887
463.48814	0.18342
461.42819	0.18701
459.36825	0.18944
457.30830	0.19011
455.24835	0.18897
453.18841	0.18626
451.12846	0.18201
449.06851	0.17725
447.00856	0.17246
444.94862	0.16773
442.88867	0.16319
440.82872	0.15838
438.76877	0.15362
436.70883	0.14939
434.64888	0.14555
432.58893	0.14185
430.52899	0.13824
428.46904	0.13434
426.40909	0.12995
424.34914	0.12614
422.28920	0.12306
420.22925	0.11829
418.16930	0.11149
416.10935	0.10679
414.04941	0.10264
411.98946	0.09695
409.92951	0.09052
407.86956	0.08514
405.80962	0.08380
403.74967	0.08944
401.68972	0.10225
399.62978	0.12154
