3996.29776	0.02991
3994.23781	0.02986
3992.17786	0.02990
3990.11791	0.02995
3988.05797	0.02995
3985.99802	0.02985
3983.93807	0.02975
3981.87813	0.02979
3979.81818	0.02983
3977.75823	0.02979
3975.69828	0.02979
3973.63834	0.02981
3971.57839	0.02982
3969.51844	0.02985
3967.45849	0.02982
3965.39855	0.02976
3963.33860	0.02976
3961.27865	0.02990
3959.21870	0.03002
3957.15876	0.03001
3955.09881	0.02988
3953.03886	0.02972
3950.97892	0.02967
3948.91897	0.02983
3946.85902	0.02994
3944.79907	0.02982
3942.73913	0.02969
3940.67918	0.02970
3938.61923	0.02969
3936.55928	0.02968
3934.49934	0.02967
3932.43939	0.02978
3930.37944	0.02991
3928.31950	0.02980
3926.25955	0.02959
3924.19960	0.02955
3922.13965	0.02954
3920.07971	0.02946
3918.01976	0.02949
3915.95981	0.02960
3913.89986	0.02961
3911.83992	0.02953
3909.77997	0.02940
3907.72002	0.02919
3905.66008	0.02906
3903.60013	0.02916
3901.54018	0.02939
3899.48023	0.02959
3897.42029	0.02960
3895.36034	0.02935
3893.30039	0.02922
3891.24044	0.02948
3889.18050	0.02953
3887.12055	0.02926
3885.06060	0.02933
3883.00065	0.02953
3880.94071	0.02960
3878.88076	0.02962
3876.82081	0.02936
3874.76087	0.02918
3872.70092	0.02919
3870.64097	0.02922
3868.58102	0.02935
3866.52108	0.02929
3864.46113	0.02930
3862.40118	0.02943
3860.34123	0.02930
3858.28129	0.02896
3856.22134	0.02854
3854.16139	0.02864
3852.10145	0.02960
3850.04150	0.02978
3847.98155	0.02938
3845.92160	0.02903
3843.86166	0.02888
3841.80171	0.02884
3839.74176	0.02888
3837.68181	0.02922
3835.62187	0.02945
3833.56192	0.02933
3831.50197	0.02923
3829.44203	0.02918
3827.38208	0.02916
3825.32213	0.02909
3823.26218	0.02886
3821.20224	0.02896
3819.14229	0.02911
3817.08234	0.02899
3815.02239	0.02925
3812.96245	0.02928
3810.90250	0.02882
3808.84255	0.02863
3806.78260	0.02907
3804.72266	0.02920
3802.66271	0.02894
3800.60276	0.02908
3798.54282	0.02914
3796.48287	0.02903
3794.42292	0.02895
3792.36297	0.02879
3790.30303	0.02874
3788.24308	0.02877
3786.18313	0.02872
3784.12318	0.02861
3782.06324	0.02847
3780.00329	0.02848
3777.94334	0.02865
3775.88340	0.02868
3773.82345	0.02853
3771.76350	0.02842
3769.70355	0.02861
3767.64361	0.02880
3765.58366	0.02874
3763.52371	0.02858
3761.46376	0.02837
3759.40382	0.02837
3757.34387	0.02840
3755.28392	0.02811
3753.22398	0.02793
3751.16403	0.02850
3749.10408	0.02912
3747.04413	0.02878
3744.98419	0.02850
3742.92424	0.02872
3740.86429	0.02848
3738.80434	0.02792
3736.74440	0.02777
3734.68445	0.02841
3732.62450	0.02895
3730.56455	0.02879
3728.50461	0.02839
3726.44466	0.02822
3724.38471	0.02838
3722.32477	0.02857
3720.26482	0.02853
3718.20487	0.02825
3716.14492	0.02785
3714.08498	0.02761
3712.02503	0.02797
3709.96508	0.02866
3707.90513	0.02874
3705.84519	0.02847
3703.78524	0.02840
3701.72529	0.02879
3699.66535	0.02915
3697.60540	0.02910
3695.54545	0.02895
3693.48550	0.02882
3691.42556	0.02878
3689.36561	0.02911
3687.30566	0.02945
3685.24571	0.02933
3683.18577	0.02902
3681.12582	0.02873
3679.06587	0.02846
3677.00593	0.02851
3674.94598	0.02909
3672.88603	0.02919
3670.82608	0.02902
3668.76614	0.02933
3666.70619	0.02941
3664.64624	0.02914
3662.58629	0.02892
3660.52635	0.02886
3658.46640	0.02900
3656.40645	0.02932
3654.34651	0.02940
3652.28656	0.02909
3650.22661	0.02912
3648.16666	0.02981
3646.10672	0.03006
3644.04677	0.02988
3641.98682	0.02977
3639.92687	0.02983
3637.86693	0.02984
3635.80698	0.02979
3633.74703	0.02977
3631.68708	0.02972
3629.62714	0.02997
3627.56719	0.03068
3625.50724	0.03078
3623.44730	0.03043
3621.38735	0.03022
3619.32740	0.03039
3617.26745	0.03058
3615.20751	0.03055
3613.14756	0.03062
3611.08761	0.03068
3609.02766	0.03070
3606.96772	0.03071
3604.90777	0.03053
3602.84782	0.03024
3600.78788	0.03018
3598.72793	0.03034
3596.66798	0.03048
3594.60803	0.03056
3592.54809	0.03054
3590.48814	0.03032
3588.42819	0.03018
3586.36824	0.03041
3584.30830	0.03055
3582.24835	0.03048
3580.18840	0.03043
3578.12846	0.03044
3576.06851	0.03045
3574.00856	0.03055
3571.94861	0.03063
3569.88867	0.03054
3567.82872	0.03063
3565.76877	0.03099
3563.70882	0.03102
3561.64888	0.03082
3559.58893	0.03070
3557.52898	0.03066
3555.46903	0.03066
3553.40909	0.03076
3551.34914	0.03092
3549.28919	0.03105
3547.22925	0.03118
3545.16930	0.03135
3543.10935	0.03145
3541.04940	0.03140
3538.98946	0.03131
3536.92951	0.03134
3534.86956	0.03139
3532.80961	0.03136
3530.74967	0.03134
3528.68972	0.03141
3526.62977	0.03155
3524.56983	0.03174
3522.50988	0.03183
3520.44993	0.03178
3518.38998	0.03174
3516.33004	0.03176
3514.27009	0.03176
3512.21014	0.03171
3510.15019	0.03174
3508.09025	0.03189
3506.03030	0.03200
3503.97035	0.03201
3501.91041	0.03207
3499.85046	0.03214
3497.79051	0.03214
3495.73056	0.03212
3493.67062	0.03208
3491.61067	0.03204
3489.55072	0.03206
3487.49077	0.03212
3485.43083	0.03216
3483.37088	0.03227
3481.31093	0.03250
3479.25098	0.03265
3477.19104	0.03262
3475.13109	0.03256
3473.07114	0.03261
3471.01120	0.03265
3468.95125	0.03258
3466.89130	0.03253
3464.83135	0.03258
3462.77141	0.03272
3460.71146	0.03283
3458.65151	0.03283
3456.59156	0.03278
3454.53162	0.03278
3452.47167	0.03287
3450.41172	0.03294
3448.35178	0.03294
3446.29183	0.03295
3444.23188	0.03299
3442.17193	0.03304
3440.11199	0.03311
3438.05204	0.03313
3435.99209	0.03310
3433.93214	0.03308
3431.87220	0.03305
3429.81225	0.03307
3427.75230	0.03318
3425.69236	0.03330
3423.63241	0.03335
3421.57246	0.03337
3419.51251	0.03340
3417.45257	0.03343
3415.39262	0.03345
3413.33267	0.03344
3411.27272	0.03345
3409.21278	0.03348
3407.15283	0.03347
3405.09288	0.03344
3403.03293	0.03350
3400.97299	0.03357
3398.91304	0.03360
3396.85309	0.03362
3394.79315	0.03364
3392.73320	0.03366
3390.67325	0.03370
3388.61330	0.03376
3386.55336	0.03379
3384.49341	0.03369
3382.43346	0.03357
3380.37351	0.03360
3378.31357	0.03364
3376.25362	0.03365
3374.19367	0.03367
3372.13373	0.03371
3370.07378	0.03373
3368.01383	0.03378
3365.95388	0.03384
3363.89394	0.03388
3361.83399	0.03388
3359.77404	0.03383
3357.71409	0.03376
3355.65415	0.03376
3353.59420	0.03380
3351.53425	0.03375
3349.47431	0.03369
3347.41436	0.03379
3345.35441	0.03393
3343.29446	0.03397
3341.23452	0.03394
3339.17457	0.03389
3337.11462	0.03391
3335.05467	0.03396
3332.99473	0.03396
3330.93478	0.03395
3328.87483	0.03392
3326.81488	0.03388
3324.75494	0.03389
3322.69499	0.03396
3320.63504	0.03399
3318.57510	0.03401
3316.51515	0.03407
3314.45520	0.03411
3312.39525	0.03410
3310.33531	0.03407
3308.27536	0.03409
3306.21541	0.03417
3304.15546	0.03421
3302.09552	0.03415
3300.03557	0.03405
3297.97562	0.03400
3295.91568	0.03403
3293.85573	0.03409
3291.79578	0.03416
3289.73583	0.03420
3287.67589	0.03419
3285.61594	0.03412
3283.55599	0.03402
3281.49604	0.03396
3279.43610	0.03405
3277.37615	0.03416
3275.31620	0.03420
3273.25626	0.03423
3271.19631	0.03425
3269.13636	0.03419
3267.07641	0.03410
3265.01647	0.03409
3262.95652	0.03412
3260.89657	0.03411
3258.83662	0.03407
3256.77668	0.03406
3254.71673	0.03406
3252.65678	0.03401
3250.59683	0.03396
3248.53689	0.03396
3246.47694	0.03402
3244.41699	0.03401
3242.35705	0.03394
3240.29710	0.03390
3238.23715	0.03390
3236.17720	0.03388
3234.11726	0.03390
3232.05731	0.03391
3229.99736	0.03386
3227.93741	0.03379
3225.87747	0.03377
3223.81752	0.03383
3221.75757	0.03383
3219.69763	0.03375
3217.63768	0.03368
3215.57773	0.03363
3213.51778	0.03359
3211.45784	0.03355
3209.39789	0.03351
3207.33794	0.03354
3205.27799	0.03356
3203.21805	0.03345
3201.15810	0.03336
3199.09815	0.03342
3197.03821	0.03347
3194.97826	0.03343
3192.91831	0.03334
3190.85836	0.03325
3188.79842	0.03322
3186.73847	0.03326
3184.67852	0.03333
3182.61857	0.03334
3180.55863	0.03328
3178.49868	0.03320
3176.43873	0.03315
3174.37878	0.03311
3172.31884	0.03303
3170.25889	0.03294
3168.19894	0.03292
3166.13900	0.03293
3164.07905	0.03294
3162.01910	0.03301
3159.95915	0.03305
3157.89921	0.03299
3155.83926	0.03289
3153.77931	0.03282
3151.71936	0.03277
3149.65942	0.03272
3147.59947	0.03267
3145.53952	0.03261
3143.47958	0.03256
3141.41963	0.03255
3139.35968	0.03253
3137.29973	0.03249
3135.23979	0.03249
3133.17984	0.03245
3131.11989	0.03239
3129.05994	0.03237
3127.00000	0.03232
3124.94005	0.03222
3122.88010	0.03216
3120.82016	0.03217
3118.76021	0.03215
3116.70026	0.03212
3114.64031	0.03215
3112.58037	0.03219
3110.52042	0.03220
3108.46047	0.03218
3106.40052	0.03214
3104.34058	0.03208
3102.28063	0.03206
3100.22068	0.03207
3098.16073	0.03205
3096.10079	0.03203
3094.04084	0.03206
3091.98089	0.03209
3089.92095	0.03210
3087.86100	0.03210
3085.80105	0.03207
3083.74110	0.03203
3081.68116	0.03198
3079.62121	0.03191
3077.56126	0.03189
3075.50131	0.03197
3073.44137	0.03203
3071.38142	0.03196
3069.32147	0.03185
3067.26153	0.03187
3065.20158	0.03191
3063.14163	0.03187
3061.08168	0.03183
3059.02174	0.03181
3056.96179	0.03177
3054.90184	0.03175
3052.84189	0.03174
3050.78195	0.03175
3048.72200	0.03176
3046.66205	0.03175
3044.60211	0.03172
3042.54216	0.03166
3040.48221	0.03158
3038.42226	0.03154
3036.36232	0.03153
3034.30237	0.03149
3032.24242	0.03146
3030.18247	0.03148
3028.12253	0.03147
3026.06258	0.03140
3024.00263	0.03140
3021.94268	0.03145
3019.88274	0.03144
3017.82279	0.03139
3015.76284	0.03133
3013.70290	0.03125
3011.64295	0.03116
3009.58300	0.03110
3007.52305	0.03108
3005.46311	0.03111
3003.40316	0.03112
3001.34321	0.03109
2999.28326	0.03108
2997.22332	0.03108
2995.16337	0.03106
2993.10342	0.03107
2991.04348	0.03107
2988.98353	0.03100
2986.92358	0.03096
2984.86363	0.03102
2982.80369	0.03109
2980.74374	0.03108
2978.68379	0.03100
2976.62384	0.03098
2974.56390	0.03099
2972.50395	0.03098
2970.44400	0.03099
2968.38406	0.03099
2966.32411	0.03098
2964.26416	0.03101
2962.20421	0.03102
2960.14427	0.03100
2958.08432	0.03098
2956.02437	0.03097
2953.96442	0.03096
2951.90448	0.03097
2949.84453	0.03102
2947.78458	0.03114
2945.72463	0.03130
2943.66469	0.03134
2941.60474	0.03131
2939.54479	0.03136
2937.48485	0.03148
2935.42490	0.03159
2933.36495	0.03165
2931.30500	0.03174
2929.24506	0.03189
2927.18511	0.03201
2925.12516	0.03207
2923.06521	0.03217
2921.00527	0.03233
2918.94532	0.03241
2916.88537	0.03229
2914.82543	0.03206
2912.76548	0.03186
2910.70553	0.03171
2908.64558	0.03159
2906.58564	0.03148
2904.52569	0.03141
2902.46574	0.03136
2900.40579	0.03125
2898.34585	0.03111
2896.28590	0.03101
2894.22595	0.03093
2892.16601	0.03091
2890.10606	0.03091
2888.04611	0.03085
2885.98616	0.03077
2883.92622	0.03072
2881.86627	0.03070
2879.80632	0.03067
2877.74637	0.03062
2875.68643	0.03060
2873.62648	0.03059
2871.56653	0.03055
2869.50658	0.03048
2867.44664	0.03043
2865.38669	0.03044
2863.32674	0.03051
2861.26680	0.03054
2859.20685	0.03055
2857.14690	0.03060
2855.08695	0.03072
2853.02701	0.03088
2850.96706	0.03104
2848.90711	0.03109
2846.84716	0.03096
2844.78722	0.03073
2842.72727	0.03053
2840.66732	0.03039
2838.60738	0.03023
2836.54743	0.03008
2834.48748	0.03000
2832.42753	0.02994
2830.36759	0.02989
2828.30764	0.02983
2826.24769	0.02973
2824.18774	0.02966
2822.12780	0.02966
2820.06785	0.02968
2818.00790	0.02968
2815.94796	0.02962
2813.88801	0.02954
2811.82806	0.02946
2809.76811	0.02938
2807.70817	0.02930
2805.64822	0.02926
2803.58827	0.02923
2801.52832	0.02918
2799.46838	0.02915
2797.40843	0.02916
2795.34848	0.02912
2793.28853	0.02903
2791.22859	0.02898
2789.16864	0.02895
2787.10869	0.02894
2785.04875	0.02892
2782.98880	0.02889
2780.92885	0.02886
2778.86890	0.02889
2776.80896	0.02893
2774.74901	0.02889
2772.68906	0.02882
2770.62911	0.02875
2768.56917	0.02867
2766.50922	0.02861
2764.44927	0.02860
2762.38933	0.02859
2760.32938	0.02853
2758.26943	0.02847
2756.20948	0.02846
2754.14954	0.02848
2752.08959	0.02848
2750.02964	0.02845
2747.96969	0.02842
2745.90975	0.02839
2743.84980	0.02835
2741.78985	0.02831
2739.72991	0.02832
2737.66996	0.02836
2735.61001	0.02835
2733.55006	0.02827
2731.49012	0.02818
2729.43017	0.02813
2727.37022	0.02810
2725.31027	0.02805
2723.25033	0.02802
2721.19038	0.02801
2719.13043	0.02803
2717.07048	0.02801
2715.01054	0.02800
2712.95059	0.02801
2710.89064	0.02796
2708.83070	0.02789
2706.77075	0.02784
2704.71080	0.02780
2702.65085	0.02780
2700.59091	0.02781
2698.53096	0.02782
2696.47101	0.02782
2694.41106	0.02777
2692.35112	0.02770
2690.29117	0.02767
2688.23122	0.02765
2686.17128	0.02761
2684.11133	0.02759
2682.05138	0.02758
2679.99143	0.02756
2677.93149	0.02753
2675.87154	0.02750
2673.81159	0.02748
2671.75164	0.02747
2669.69170	0.02751
2667.63175	0.02763
2665.57180	0.02776
2663.51186	0.02790
2661.45191	0.02799
2659.39196	0.02801
2657.33201	0.02804
2655.27207	0.02810
2653.21212	0.02816
2651.15217	0.02816
2649.09222	0.02813
2647.03228	0.02806
2644.97233	0.02796
2642.91238	0.02789
2640.85243	0.02784
2638.79249	0.02772
2636.73254	0.02756
2634.67259	0.02744
2632.61265	0.02738
2630.55270	0.02730
2628.49275	0.02720
2626.43280	0.02712
2624.37286	0.02706
2622.31291	0.02698
2620.25296	0.02690
2618.19301	0.02687
2616.13307	0.02689
2614.07312	0.02689
2612.01317	0.02680
2609.95323	0.02670
2607.89328	0.02660
2605.83333	0.02648
2603.77338	0.02638
2601.71344	0.02631
2599.65349	0.02625
2597.59354	0.02617
2595.53359	0.02612
2593.47365	0.02611
2591.41370	0.02605
2589.35375	0.02595
2587.29381	0.02584
2585.23386	0.02580
2583.17391	0.02584
2581.11396	0.02586
2579.05402	0.02576
2576.99407	0.02561
2574.93412	0.02554
2572.87417	0.02556
2570.81423	0.02557
2568.75428	0.02554
2566.69433	0.02548
2564.63438	0.02533
2562.57444	0.02527
2560.51449	0.02530
2558.45454	0.02529
2556.39460	0.02516
2554.33465	0.02500
2552.27470	0.02500
2550.21475	0.02504
2548.15481	0.02493
2546.09486	0.02471
2544.03491	0.02458
2541.97496	0.02459
2539.91502	0.02466
2537.85507	0.02477
2535.79512	0.02484
2533.73518	0.02479
2531.67523	0.02470
2529.61528	0.02459
2527.55533	0.02450
2525.49539	0.02451
2523.43544	0.02461
2521.37549	0.02467
2519.31554	0.02465
2517.25560	0.02457
2515.19565	0.02446
2513.13570	0.02443
2511.07576	0.02444
2509.01581	0.02438
2506.95586	0.02434
2504.89591	0.02430
2502.83597	0.02422
2500.77602	0.02417
2498.71607	0.02421
2496.65612	0.02429
2494.59618	0.02433
2492.53623	0.02430
2490.47628	0.02423
2488.41633	0.02417
2486.35639	0.02414
2484.29644	0.02414
2482.23649	0.02413
2480.17655	0.02409
2478.11660	0.02403
2476.05665	0.02400
2473.99670	0.02401
2471.93676	0.02399
2469.87681	0.02397
2467.81686	0.02404
2465.75691	0.02413
2463.69697	0.02409
2461.63702	0.02405
2459.57707	0.02415
2457.51713	0.02426
2455.45718	0.02425
2453.39723	0.02415
2451.33728	0.02404
2449.27734	0.02391
2447.21739	0.02377
2445.15744	0.02367
2443.09749	0.02359
2441.03755	0.02358
2438.97760	0.02366
2436.91765	0.02364
2434.85771	0.02354
2432.79776	0.02352
2430.73781	0.02345
2428.67786	0.02331
2426.61792	0.02323
2424.55797	0.02326
2422.49802	0.02334
2420.43807	0.02337
2418.37813	0.02332
2416.31818	0.02322
2414.25823	0.02313
2412.19828	0.02309
2410.13834	0.02304
2408.07839	0.02291
2406.01844	0.02280
2403.95850	0.02278
2401.89855	0.02275
2399.83860	0.02274
2397.77865	0.02275
2395.71871	0.02272
2393.65876	0.02270
2391.59881	0.02275
2389.53886	0.02279
2387.47892	0.02277
2385.41897	0.02275
2383.35902	0.02270
2381.29908	0.02261
2379.23913	0.02251
2377.17918	0.02246
2375.11923	0.02248
2373.05929	0.02242
2370.99934	0.02221
2368.93939	0.02211
2366.87944	0.02223
2364.81950	0.02247
2362.75955	0.02278
2360.69960	0.02304
2358.63966	0.02317
2356.57971	0.02323
2354.51976	0.02324
2352.45981	0.02326
2350.39987	0.02322
2348.33992	0.02307
2346.27997	0.02301
2344.22002	0.02311
2342.16008	0.02313
2340.10013	0.02302
2338.04018	0.02298
2335.98023	0.02308
2333.92029	0.02319
2331.86034	0.02327
2329.80039	0.02365
2327.74045	0.02464
2325.68050	0.02563
2323.62055	0.02569
2321.56060	0.02512
2319.50066	0.02464
2317.44071	0.02434
2315.38076	0.02417
2313.32081	0.02411
2311.26087	0.02407
2309.20092	0.02402
2307.14097	0.02391
2305.08103	0.02380
2303.02108	0.02374
2300.96113	0.02372
2298.90118	0.02374
2296.84124	0.02386
2294.78129	0.02412
2292.72134	0.02439
2290.66139	0.02454
2288.60145	0.02453
2286.54150	0.02437
2284.48155	0.02411
2282.42161	0.02387
2280.36166	0.02368
2278.30171	0.02344
2276.24176	0.02310
2274.18182	0.02285
2272.12187	0.02285
2270.06192	0.02285
2268.00197	0.02254
2265.94203	0.02220
2263.88208	0.02214
2261.82213	0.02237
2259.76218	0.02267
2257.70224	0.02262
2255.64229	0.02214
2253.58234	0.02166
2251.52240	0.02149
2249.46245	0.02161
2247.40250	0.02186
2245.34255	0.02198
2243.28261	0.02186
2241.22266	0.02164
2239.16271	0.02156
2237.10276	0.02159
2235.04282	0.02157
2232.98287	0.02158
2230.92292	0.02166
2228.86298	0.02162
2226.80303	0.02141
2224.74308	0.02128
2222.68313	0.02131
2220.62319	0.02120
2218.56324	0.02092
2216.50329	0.02069
2214.44334	0.02053
2212.38340	0.02054
2210.32345	0.02074
2208.26350	0.02101
2206.20356	0.02127
2204.14361	0.02132
2202.08366	0.02090
2200.02371	0.02027
2197.96377	0.01996
2195.90382	0.01999
2193.84387	0.02019
2191.78392	0.02053
2189.72398	0.02073
2187.66403	0.02066
2185.60408	0.02037
2183.54413	0.01986
2181.48419	0.01975
2179.42424	0.02009
2177.36429	0.01992
2175.30435	0.01953
2173.24440	0.01981
2171.18445	0.02059
2169.12450	0.02136
2167.06456	0.02181
2165.00461	0.02200
2162.94466	0.02137
2160.88471	0.01824
2158.82477	0.01442
2156.76482	0.01364
2154.70487	0.01468
2152.64493	0.01567
2150.58498	0.01640
2148.52503	0.01661
2146.46508	0.01654
2144.40514	0.01669
2142.34519	0.01686
2140.28524	0.01677
2138.22529	0.01639
2136.16535	0.01578
2134.10540	0.01550
2132.04545	0.01592
2129.98551	0.01680
2127.92556	0.01771
2125.86561	0.01830
2123.80566	0.01855
2121.74572	0.01881
2119.68577	0.01934
2117.62582	0.01996
2115.56587	0.02032
2113.50593	0.02034
2111.44598	0.02025
2109.38603	0.02022
2107.32608	0.02017
2105.26614	0.02009
2103.20619	0.02006
2101.14624	0.02004
2099.08630	0.01988
2097.02635	0.01947
2094.96640	0.01902
2092.90645	0.01902
2090.84651	0.01944
2088.78656	0.01973
2086.72661	0.01983
2084.66666	0.02002
2082.60672	0.02019
2080.54677	0.02026
2078.48682	0.02034
2076.42688	0.02036
2074.36693	0.02026
2072.30698	0.02014
2070.24703	0.01993
2068.18709	0.01963
2066.12714	0.01948
2064.06719	0.01956
2062.00724	0.01968
2059.94730	0.01974
2057.88735	0.01985
2055.82740	0.02000
2053.76746	0.02047
2051.70751	0.02105
2049.64756	0.02080
2047.58761	0.02008
2045.52767	0.01970
2043.46772	0.01945
2041.40777	0.01934
2039.34782	0.01937
2037.28788	0.01904
2035.22793	0.01844
2033.16798	0.01813
2031.10803	0.01787
2029.04809	0.01750
2026.98814	0.01729
2024.92819	0.01743
2022.86825	0.01775
2020.80830	0.01774
2018.74835	0.01732
2016.68840	0.01700
2014.62846	0.01682
2012.56851	0.01679
2010.50856	0.01700
2008.44861	0.01671
2006.38867	0.01626
2004.32872	0.01669
2002.26877	0.01744
2000.20883	0.01788
1998.14888	0.01802
1996.08893	0.01811
1994.02898	0.01846
1991.96904	0.01882
1989.90909	0.01896
1987.84914	0.01920
1985.78919	0.01962
1983.72925	0.02036
1981.66930	0.02102
1979.60935	0.02012
1977.54941	0.01793
1975.48946	0.01671
1973.42951	0.01656
1971.36956	0.01635
1969.30962	0.01623
1967.24967	0.01646
1965.18972	0.01676
1963.12977	0.01687
1961.06983	0.01675
1959.00988	0.01665
1956.94993	0.01678
1954.88998	0.01698
1952.83004	0.01721
1950.77009	0.01736
1948.71014	0.01727
1946.65020	0.01711
1944.59025	0.01711
1942.53030	0.01736
1940.47035	0.01758
1938.41041	0.01767
1936.35046	0.01772
1934.29051	0.01771
1932.23056	0.01770
1930.17062	0.01778
1928.11067	0.01788
1926.05072	0.01793
1923.99078	0.01803
1921.93083	0.01824
1919.87088	0.01833
1917.81093	0.01833
1915.75099	0.01845
1913.69104	0.01860
1911.63109	0.01869
1909.57114	0.01878
1907.51120	0.01886
1905.45125	0.01897
1903.39130	0.01911
1901.33136	0.01911
1899.27141	0.01902
1897.21146	0.01896
1895.15151	0.01898
1893.09157	0.01911
1891.03162	0.01928
1888.97167	0.01944
1886.91172	0.01960
1884.85178	0.01972
1882.79183	0.01972
1880.73188	0.01964
1878.67193	0.01961
1876.61199	0.01965
1874.55204	0.01974
1872.49209	0.01982
1870.43215	0.01988
1868.37220	0.01989
1866.31225	0.01980
1864.25230	0.01977
1862.19236	0.01978
1860.13241	0.01971
1858.07246	0.01960
1856.01251	0.01951
1853.95257	0.01942
1851.89262	0.01926
1849.83267	0.01912
1847.77273	0.01902
1845.71278	0.01893
1843.65283	0.01892
1841.59288	0.01894
1839.53294	0.01890
1837.47299	0.01891
1835.41304	0.01894
1833.35309	0.01886
1831.29315	0.01880
1829.23320	0.01889
1827.17325	0.01891
1825.11331	0.01891
1823.05336	0.01898
1820.99341	0.01889
1818.93346	0.01863
1816.87352	0.01847
1814.81357	0.01859
1812.75362	0.01887
1810.69367	0.01915
1808.63373	0.01936
1806.57378	0.01946
1804.51383	0.01949
1802.45388	0.01949
1800.39394	0.01951
1798.33399	0.01954
1796.27404	0.01953
1794.21410	0.01951
1792.15415	0.01961
1790.09420	0.01977
1788.03425	0.01981
1785.97431	0.01986
1783.91436	0.01989
1781.85441	0.01987
1779.79446	0.01987
1777.73452	0.01983
1775.67457	0.01973
1773.61462	0.01973
1771.55468	0.01992
1769.49473	0.02005
1767.43478	0.02007
1765.37483	0.02005
1763.31489	0.02003
1761.25494	0.02013
1759.19499	0.02029
1757.13504	0.02041
1755.07510	0.02045
1753.01515	0.02044
1750.95520	0.02059
1748.89526	0.02084
1746.83531	0.02094
1744.77536	0.02098
1742.71541	0.02103
1740.65547	0.02115
1738.59552	0.02131
1736.53557	0.02143
1734.47562	0.02162
1732.41568	0.02186
1730.35573	0.02190
1728.29578	0.02194
1726.23583	0.02201
1724.17589	0.02216
1722.11594	0.02235
1720.05599	0.02250
1717.99605	0.02273
1715.93610	0.02309
1713.87615	0.02331
1711.81620	0.02337
1709.75626	0.02341
1707.69631	0.02352
1705.63636	0.02371
1703.57641	0.02382
1701.51647	0.02394
1699.45652	0.02435
1697.39657	0.02470
1695.33663	0.02491
1693.27668	0.02508
1691.21673	0.02525
1689.15678	0.02550
1687.09684	0.02571
1685.03689	0.02593
1682.97694	0.02627
1680.91699	0.02649
1678.85705	0.02666
1676.79710	0.02685
1674.73715	0.02712
1672.67721	0.02741
1670.61726	0.02769
1668.55731	0.02798
1666.49736	0.02818
1664.43742	0.02834
1662.37747	0.02860
1660.31752	0.02885
1658.25757	0.02903
1656.19763	0.02919
1654.13768	0.02946
1652.07773	0.02991
1650.01778	0.03005
1647.95784	0.03013
1645.89789	0.03034
1643.83794	0.03047
1641.77800	0.03054
1639.71805	0.03066
1637.65810	0.03087
1635.59815	0.03113
1633.53821	0.03129
1631.47826	0.03136
1629.41831	0.03147
1627.35836	0.03165
1625.29842	0.03178
1623.23847	0.03187
1621.17852	0.03193
1619.11858	0.03196
1617.05863	0.03207
1614.99868	0.03224
1612.93873	0.03227
1610.87879	0.03224
1608.81884	0.03226
1606.75889	0.03232
1604.69894	0.03234
1602.63900	0.03232
1600.57905	0.03227
1598.51910	0.03225
1596.45916	0.03224
1594.39921	0.03224
1592.33926	0.03219
1590.27931	0.03211
1588.21937	0.03203
1586.15942	0.03191
1584.09947	0.03176
1582.03952	0.03166
1579.97958	0.03159
1577.91963	0.03152
1575.85968	0.03145
1573.79973	0.03133
1571.73979	0.03117
1569.67984	0.03100
1567.61989	0.03086
1565.55995	0.03073
1563.50000	0.03059
1561.44005	0.03045
1559.38010	0.03029
1557.32016	0.03017
1555.26021	0.03004
1553.20026	0.02986
1551.14031	0.02969
1549.08037	0.02957
1547.02042	0.02948
1544.96047	0.02943
1542.90053	0.02938
1540.84058	0.02925
1538.78063	0.02902
1536.72068	0.02882
1534.66074	0.02867
1532.60079	0.02855
1530.54084	0.02846
1528.48089	0.02837
1526.42095	0.02824
1524.36100	0.02802
1522.30105	0.02785
1520.24111	0.02774
1518.18116	0.02755
1516.12121	0.02740
1514.06126	0.02730
1512.00132	0.02716
1509.94137	0.02701
1507.88142	0.02695
1505.82147	0.02687
1503.76153	0.02668
1501.70158	0.02645
1499.64163	0.02628
1497.58168	0.02627
1495.52174	0.02630
1493.46179	0.02624
1491.40184	0.02620
1489.34190	0.02622
1487.28195	0.02622
1485.22200	0.02618
1483.16205	0.02619
1481.10211	0.02627
1479.04216	0.02637
1476.98221	0.02653
1474.92226	0.02683
1472.86232	0.02723
1470.80237	0.02750
1468.74242	0.02761
1466.68248	0.02774
1464.62253	0.02797
1462.56258	0.02814
1460.50263	0.02823
1458.44269	0.02843
1456.38274	0.02869
1454.32279	0.02873
1452.26284	0.02873
1450.20290	0.02880
1448.14295	0.02888
1446.08300	0.02890
1444.02306	0.02886
1441.96311	0.02883
1439.90316	0.02884
1437.84321	0.02891
1435.78327	0.02908
1433.72332	0.02918
1431.66337	0.02920
1429.60342	0.02922
1427.54348	0.02926
1425.48353	0.02933
1423.42358	0.02941
1421.36363	0.02945
1419.30369	0.02947
1417.24374	0.02945
1415.18379	0.02937
1413.12385	0.02930
1411.06390	0.02924
1409.00395	0.02915
1406.94400	0.02905
1404.88406	0.02893
1402.82411	0.02884
1400.76416	0.02881
1398.70421	0.02881
1396.64427	0.02876
1394.58432	0.02870
1392.52437	0.02860
1390.46443	0.02847
1388.40448	0.02842
1386.34453	0.02844
1384.28458	0.02840
1382.22464	0.02835
1380.16469	0.02835
1378.10474	0.02838
1376.04479	0.02838
1373.98485	0.02831
1371.92490	0.02819
1369.86495	0.02807
1367.80501	0.02797
1365.74506	0.02790
1363.68511	0.02782
1361.62516	0.02771
1359.56522	0.02757
1357.50527	0.02742
1355.44532	0.02727
1353.38537	0.02716
1351.32543	0.02711
1349.26548	0.02703
1347.20553	0.02691
1345.14558	0.02681
1343.08564	0.02674
1341.02569	0.02669
1338.96574	0.02668
1336.90580	0.02665
1334.84585	0.02658
1332.78590	0.02652
1330.72595	0.02645
1328.66601	0.02634
1326.60606	0.02626
1324.54611	0.02622
1322.48616	0.02622
1320.42622	0.02629
1318.36627	0.02636
1316.30632	0.02639
1314.24638	0.02638
1312.18643	0.02636
1310.12648	0.02629
1308.06653	0.02622
1306.00659	0.02621
1303.94664	0.02625
1301.88669	0.02632
1299.82674	0.02639
1297.76680	0.02648
1295.70685	0.02661
1293.64690	0.02675
1291.58696	0.02686
1289.52701	0.02698
1287.46706	0.02716
1285.40711	0.02737
1283.34717	0.02758
1281.28722	0.02776
1279.22727	0.02793
1277.16732	0.02810
1275.10738	0.02826
1273.04743	0.02842
1270.98748	0.02860
1268.92753	0.02876
1266.86759	0.02890
1264.80764	0.02908
1262.74769	0.02930
1260.68775	0.02944
1258.62780	0.02955
1256.56785	0.02978
1254.50790	0.03012
1252.44796	0.03051
1250.38801	0.03094
1248.32806	0.03136
1246.26811	0.03174
1244.20817	0.03211
1242.14822	0.03252
1240.08827	0.03295
1238.02833	0.03341
1235.96838	0.03390
1233.90843	0.03442
1231.84848	0.03498
1229.78854	0.03558
1227.72859	0.03625
1225.66864	0.03708
1223.60869	0.03812
1221.54875	0.03931
1219.48880	0.04062
1217.42885	0.04207
1215.36891	0.04363
1213.30896	0.04519
1211.24901	0.04675
1209.18906	0.04831
1207.12912	0.04983
1205.06917	0.05133
1203.00922	0.05289
1200.94927	0.05442
1198.88933	0.05582
1196.82938	0.05718
1194.76943	0.05856
1192.70949	0.05994
1190.64954	0.06130
1188.58959	0.06267
1186.52964	0.06409
1184.46970	0.06560
1182.40975	0.06718
1180.34980	0.06886
1178.28985	0.07071
1176.22991	0.07281
1174.16996	0.07516
1172.11001	0.07776
1170.05006	0.08057
1167.99012	0.08352
1165.93017	0.08639
1163.87022	0.08862
1161.81028	0.08941
1159.75033	0.08856
1157.69038	0.08709
1155.63043	0.08629
1153.57049	0.08664
1151.51054	0.08785
1149.45059	0.08952
1147.39064	0.09137
1145.33070	0.09327
1143.27075	0.09523
1141.21080	0.09732
1139.15086	0.09954
1137.09091	0.10184
1135.03096	0.10424
1132.97101	0.10676
1130.91107	0.10934
1128.85112	0.11197
1126.79117	0.11466
1124.73122	0.11741
1122.67128	0.12021
1120.61133	0.12307
1118.55138	0.12605
1116.49144	0.12910
1114.43149	0.13211
1112.37154	0.13508
1110.31159	0.13812
1108.25165	0.14128
1106.19170	0.14452
1104.13175	0.14783
1102.07180	0.15118
1100.01186	0.15457
1097.95191	0.15799
1095.89196	0.16144
1093.83201	0.16480
1091.77207	0.16799
1089.71212	0.17108
1087.65217	0.17404
1085.59223	0.17671
1083.53228	0.17895
1081.47233	0.18081
1079.41238	0.18239
1077.35244	0.18371
1075.29249	0.18464
1073.23254	0.18527
1071.17259	0.18589
1069.11265	0.18674
1067.05270	0.18784
1064.99275	0.18920
1062.93281	0.19066
1060.87286	0.19192
1058.81291	0.19281
1056.75296	0.19334
1054.69302	0.19353
1052.63307	0.19351
1050.57312	0.19341
1048.51317	0.19327
1046.45323	0.19310
1044.39328	0.19306
1042.33333	0.19313
1040.27339	0.19327
1038.21344	0.19342
1036.15349	0.19352
1034.09354	0.19347
1032.03360	0.19312
1029.97365	0.19244
1027.91370	0.19157
1025.85375	0.19065
1023.79381	0.18967
1021.73386	0.18865
1019.67391	0.18768
1017.61396	0.18681
1015.55402	0.18601
1013.49407	0.18526
1011.43412	0.18452
1009.37418	0.18371
1007.31423	0.18280
1005.25428	0.18168
1003.19433	0.18024
1001.13439	0.17859
999.07444	0.17695
997.01449	0.17528
994.95454	0.17351
992.89460	0.17170
990.83465	0.16988
988.77470	0.16801
986.71476	0.16612
984.65481	0.16426
982.59486	0.16230
980.53491	0.16018
978.47497	0.15798
976.41502	0.15581
974.35507	0.15360
972.29512	0.15130
970.23518	0.14901
968.17523	0.14686
966.11528	0.14474
964.05534	0.14258
961.99539	0.14043
959.93544	0.13833
957.87549	0.13634
955.81555	0.13444
953.75560	0.13255
951.69565	0.13072
949.63570	0.12898
947.57576	0.12730
945.51581	0.12568
943.45586	0.12411
941.39591	0.12264
939.33597	0.12119
937.27602	0.11966
935.21607	0.11803
933.15613	0.11641
931.09618	0.11489
929.03623	0.11343
926.97628	0.11201
924.91634	0.11062
922.85639	0.10921
920.79644	0.10783
918.73649	0.10662
916.67655	0.10552
914.61660	0.10431
912.55665	0.10292
910.49671	0.10137
908.43676	0.09965
906.37681	0.09776
904.31686	0.09577
902.25692	0.09379
900.19697	0.09191
898.13702	0.09012
896.07707	0.08834
894.01713	0.08652
891.95718	0.08474
889.89723	0.08312
887.83729	0.08167
885.77734	0.08024
883.71739	0.07872
881.65744	0.07717
879.59750	0.07562
877.53755	0.07412
875.47760	0.07267
873.41765	0.07128
871.35771	0.06986
869.29776	0.06838
867.23781	0.06695
865.17786	0.06562
863.11792	0.06436
861.05797	0.06309
858.99802	0.06178
856.93808	0.06050
854.87813	0.05929
852.81818	0.05817
850.75823	0.05716
848.69829	0.05618
846.63834	0.05527
844.57839	0.05451
842.51844	0.05392
840.45850	0.05346
838.39855	0.05305
836.33860	0.05262
834.27866	0.05228
832.21871	0.05209
830.15876	0.05202
828.09881	0.05204
826.03887	0.05220
823.97892	0.05255
821.91897	0.05311
819.85902	0.05399
817.79908	0.05543
815.73913	0.05757
813.67918	0.06069
811.61924	0.06525
809.55929	0.07171
807.49934	0.08041
805.43939	0.09121
803.37945	0.10308
801.31950	0.11441
799.25955	0.12361
797.19960	0.12935
795.13966	0.13127
793.07971	0.13048
791.01976	0.12878
788.95981	0.12789
786.89987	0.12911
784.83992	0.13281
782.77997	0.13846
780.72003	0.14456
778.66008	0.14889
776.60013	0.14985
774.54018	0.14742
772.48024	0.14289
770.42029	0.13756
768.36034	0.13224
766.30039	0.12736
764.24045	0.12297
762.18050	0.11892
760.12055	0.11508
758.06061	0.11146
756.00066	0.10808
753.94071	0.10497
751.88076	0.10215
749.82082	0.09958
747.76087	0.09718
745.70092	0.09494
743.64097	0.09284
741.58103	0.09090
739.52108	0.08908
737.46113	0.08734
735.40119	0.08573
733.34124	0.08434
731.28129	0.08315
729.22134	0.08208
727.16140	0.08113
725.10145	0.08021
723.04150	0.07926
720.98155	0.07826
718.92161	0.07721
716.86166	0.07618
714.80171	0.07536
712.74176	0.07487
710.68182	0.07467
708.62187	0.07483
706.56192	0.07558
704.50198	0.07718
702.44203	0.08012
700.38208	0.08532
698.32213	0.09297
696.26219	0.10051
694.20224	0.10407
692.14229	0.10255
690.08234	0.09793
688.02240	0.09255
685.96245	0.08776
683.90250	0.08392
681.84256	0.08078
679.78261	0.07801
677.72266	0.07565
675.66271	0.07377
673.60277	0.07229
671.54282	0.07110
669.48287	0.06981
667.42292	0.06820
665.36298	0.06707
663.30303	0.06628
661.24308	0.06544
659.18314	0.06473
657.12319	0.06431
655.06324	0.06416
653.00329	0.06407
650.94335	0.06394
648.88340	0.06380
646.82345	0.06355
644.76350	0.06304
642.70356	0.06234
640.64361	0.06160
638.58366	0.06085
636.52371	0.06006
634.46377	0.05937
632.40382	0.05874
630.34387	0.05812
628.28393	0.05770
626.22398	0.05749
624.16403	0.05732
622.10408	0.05717
620.04414	0.05707
617.98419	0.05714
615.92424	0.05743
613.86429	0.05782
611.80435	0.05811
609.74440	0.05838
607.68445	0.05875
605.62451	0.05921
603.56456	0.05959
601.50461	0.05992
599.44466	0.06024
597.38472	0.06057
595.32477	0.06090
593.26482	0.06110
591.20487	0.06118
589.14493	0.06142
587.08498	0.06185
585.02503	0.06223
582.96509	0.06249
580.90514	0.06266
578.84519	0.06285
576.78524	0.06314
574.72530	0.06336
572.66535	0.06345
570.60540	0.06366
568.54545	0.06417
566.48551	0.06491
564.42556	0.06551
562.36561	0.06594
560.30566	0.06643
558.24572	0.06709
556.18577	0.06821
554.12582	0.06972
552.06588	0.07156
550.00593	0.07395
547.94598	0.07690
545.88603	0.08053
543.82609	0.08497
541.76614	0.08998
539.70619	0.09530
537.64624	0.10081
535.58630	0.10636
533.52635	0.11168
531.46640	0.11649
529.40646	0.12056
527.34651	0.12418
525.28656	0.12747
523.22661	0.12990
521.16667	0.13170
519.10672	0.13318
517.04677	0.13388
514.98682	0.13355
512.92688	0.13242
510.86693	0.13056
508.80698	0.12846
506.74704	0.12741
504.68709	0.12816
502.62714	0.13081
500.56719	0.13518
498.50725	0.14045
496.44730	0.14605
494.38735	0.15174
492.32740	0.15751
490.26746	0.16318
488.20751	0.16849
486.14756	0.17385
484.08761	0.17998
482.02767	0.18705
479.96772	0.19465
477.90777	0.20243
475.84783	0.21004
473.78788	0.21802
471.72793	0.22676
469.66798	0.23464
467.60804	0.24158
465.54809	0.24819
463.48814	0.25380
461.42819	0.25852
459.36825	0.26279
457.30830	0.26648
455.24835	0.26894
453.18841	0.26997
451.12846	0.26968
449.06851	0.26859
447.00856	0.26715
444.94862	0.26530
442.88867	0.26253
440.82872	0.25895
438.76877	0.25574
436.70883	0.25311
434.64888	0.25062
432.58893	0.24809
430.52899	0.24512
428.46904	0.24112
426.40909	0.23625
424.34914	0.23151
422.28920	0.22723
420.22925	0.22131
418.16930	0.21275
416.10935	0.20519
414.04941	0.19713
411.98946	0.18635
409.92951	0.17381
407.86956	0.16183
405.80962	0.15478
403.74967	0.15731
401.68972	0.17031
399.62978	0.19322
