3996.29776	0.01006
3994.23781	0.01011
3992.17786	0.01020
3990.11791	0.01021
3988.05797	0.01020
3985.99802	0.01018
3983.93807	0.01020
3981.87813	0.01025
3979.81818	0.01028
3977.75823	0.01030
3975.69828	0.01030
3973.63834	0.01025
3971.57839	0.01019
3969.51844	0.01018
3967.45849	0.01018
3965.39855	0.01019
3963.33860	0.01026
3961.27865	0.01033
3959.21870	0.01033
3957.15876	0.01027
3955.09881	0.01016
3953.03886	0.01009
3950.97892	0.01014
3948.91897	0.01023
3946.85902	0.01028
3944.79907	0.01036
3942.73913	0.01033
3940.67918	0.01017
3938.61923	0.01011
3936.55928	0.01020
3934.49934	0.01034
3932.43939	0.01031
3930.37944	0.01016
3928.31950	0.01019
3926.25955	0.01030
3924.19960	0.01022
3922.13965	0.01009
3920.07971	0.01009
3918.01976	0.01007
3915.95981	0.00997
3913.89986	0.00996
3911.83992	0.01002
3909.77997	0.01001
3907.72002	0.01006
3905.66008	0.01023
3903.60013	0.01014
3901.54018	0.00981
3899.48023	0.00959
3897.42029	0.00962
3895.36034	0.00990
3893.30039	0.01014
3891.24044	0.01008
3889.18050	0.00999
3887.12055	0.01009
3885.06060	0.01008
3883.00065	0.01005
3880.94071	0.01004
3878.88076	0.00990
3876.82081	0.01001
3874.76087	0.01024
3872.70092	0.01027
3870.64097	0.01007
3868.58102	0.00980
3866.52108	0.00992
3864.46113	0.01012
3862.40118	0.00997
3860.34123	0.00990
3858.28129	0.01016
3856.22134	0.01053
3854.16139	0.01040
3852.10145	0.00952
3850.04150	0.00927
3847.98155	0.00959
3845.92160	0.01000
3843.86166	0.01029
3841.80171	0.01042
3839.74176	0.01038
3837.68181	0.01005
3835.62187	0.00981
3833.56192	0.00985
3831.50197	0.00986
3829.44203	0.00987
3827.38208	0.01002
3825.32213	0.01017
3823.26218	0.01026
3821.20224	0.01011
3819.14229	0.00979
3817.08234	0.00972
3815.02239	0.00961
3812.96245	0.00957
3810.90250	0.00981
3808.84255	0.01012
3806.78260	0.01019
3804.72266	0.01015
3802.66271	0.01014
3800.60276	0.00980
3798.54282	0.00961
3796.48287	0.00966
3794.42292	0.00960
3792.36297	0.00964
3790.30303	0.00983
3788.24308	0.01002
3786.18313	0.01004
3784.12318	0.00990
3782.06324	0.00987
3780.00329	0.00981
3777.94334	0.00954
3775.88340	0.00952
3773.82345	0.00978
3771.76350	0.00997
3769.70355	0.00991
3767.64361	0.00982
3765.58366	0.00985
3763.52371	0.00990
3761.46376	0.01002
3759.40382	0.00999
3757.34387	0.00971
3755.28392	0.00967
3753.22398	0.00999
3751.16403	0.01012
3749.10408	0.00977
3747.04413	0.00974
3744.98419	0.00979
3742.92424	0.00942
3740.86429	0.00928
3738.80434	0.00941
3736.74440	0.00933
3734.68445	0.00912
3732.62450	0.00915
3730.56455	0.00929
3728.50461	0.00944
3726.44466	0.00953
3724.38471	0.00952
3722.32477	0.00946
3720.26482	0.00934
3718.20487	0.00921
3716.14492	0.00923
3714.08498	0.00947
3712.02503	0.00957
3709.96508	0.00930
3707.90513	0.00922
3705.84519	0.00944
3703.78524	0.00976
3701.72529	0.00993
3699.66535	0.00998
3697.60540	0.01004
3695.54545	0.01011
3693.48550	0.01021
3691.42556	0.01027
3689.36561	0.00999
3687.30566	0.00958
3685.24571	0.00958
3683.18577	0.00986
3681.12582	0.01011
3679.06587	0.01030
3677.00593	0.01038
3674.94598	0.00995
3672.88603	0.00968
3670.82608	0.00973
3668.76614	0.00953
3666.70619	0.00955
3664.64624	0.00983
3662.58629	0.01003
3660.52635	0.01021
3658.46640	0.01045
3656.40645	0.01045
3654.34651	0.01035
3652.28656	0.01068
3650.22661	0.01090
3648.16666	0.01026
3646.10672	0.00982
3644.04677	0.00999
3641.98682	0.01037
3639.92687	0.01067
3637.86693	0.01079
3635.80698	0.01083
3633.74703	0.01092
3631.68708	0.01114
3629.62714	0.01115
3627.56719	0.01058
3625.50724	0.01049
3623.44730	0.01090
3621.38735	0.01122
3619.32740	0.01110
3617.26745	0.01072
3615.20751	0.01067
3613.14756	0.01081
3611.08761	0.01096
3609.02766	0.01104
3606.96772	0.01090
3604.90777	0.01081
3602.84782	0.01089
3600.78788	0.01093
3598.72793	0.01099
3596.66798	0.01110
3594.60803	0.01106
3592.54809	0.01100
3590.48814	0.01121
3588.42819	0.01130
3586.36824	0.01089
3584.30830	0.01062
3582.24835	0.01076
3580.18840	0.01097
3578.12846	0.01106
3576.06851	0.01106
3574.00856	0.01113
3571.94861	0.01131
3569.88867	0.01150
3567.82872	0.01145
3565.76877	0.01106
3563.70882	0.01090
3561.64888	0.01106
3559.58893	0.01118
3557.52898	0.01126
3555.46903	0.01138
3553.40909	0.01141
3551.34914	0.01143
3549.28919	0.01168
3547.22925	0.01188
3545.16930	0.01173
3543.10935	0.01155
3541.04940	0.01160
3538.98946	0.01180
3536.92951	0.01191
3534.86956	0.01183
3532.80961	0.01182
3530.74967	0.01197
3528.68972	0.01205
3526.62977	0.01204
3524.56983	0.01207
3522.50988	0.01208
3520.44993	0.01208
3518.38998	0.01218
3516.33004	0.01228
3514.27009	0.01225
3512.21014	0.01219
3510.15019	0.01219
3508.09025	0.01229
3506.03030	0.01247
3503.97035	0.01250
3501.91041	0.01230
3499.85046	0.01225
3497.79051	0.01238
3495.73056	0.01240
3493.67062	0.01234
3491.61067	0.01240
3489.55072	0.01252
3487.49077	0.01251
3485.43083	0.01249
3483.37088	0.01261
3481.31093	0.01272
3479.25098	0.01276
3477.19104	0.01283
3475.13109	0.01284
3473.07114	0.01280
3471.01120	0.01281
3468.95125	0.01283
3466.89130	0.01284
3464.83135	0.01291
3462.77141	0.01301
3460.71146	0.01306
3458.65151	0.01305
3456.59156	0.01297
3454.53162	0.01294
3452.47167	0.01303
3450.41172	0.01316
3448.35178	0.01323
3446.29183	0.01321
3444.23188	0.01321
3442.17193	0.01328
3440.11199	0.01332
3438.05204	0.01330
3435.99209	0.01326
3433.93214	0.01327
3431.87220	0.01331
3429.81225	0.01336
3427.75230	0.01341
3425.69236	0.01346
3423.63241	0.01349
3421.57246	0.01345
3419.51251	0.01340
3417.45257	0.01347
3415.39262	0.01357
3413.33267	0.01359
3411.27272	0.01360
3409.21278	0.01362
3407.15283	0.01363
3405.09288	0.01366
3403.03293	0.01370
3400.97299	0.01371
3398.91304	0.01367
3396.85309	0.01366
3394.79315	0.01370
3392.73320	0.01371
3390.67325	0.01367
3388.61330	0.01368
3386.55336	0.01376
3384.49341	0.01377
3382.43346	0.01373
3380.37351	0.01376
3378.31357	0.01379
3376.25362	0.01380
3374.19367	0.01386
3372.13373	0.01397
3370.07378	0.01403
3368.01383	0.01400
3365.95388	0.01396
3363.89394	0.01396
3361.83399	0.01401
3359.77404	0.01404
3357.71409	0.01403
3355.65415	0.01400
3353.59420	0.01400
3351.53425	0.01398
3349.47431	0.01397
3347.41436	0.01405
3345.35441	0.01414
3343.29446	0.01415
3341.23452	0.01415
3339.17457	0.01418
3337.11462	0.01420
3335.05467	0.01422
3332.99473	0.01426
3330.93478	0.01430
3328.87483	0.01428
3326.81488	0.01421
3324.75494	0.01421
3322.69499	0.01430
3320.63504	0.01435
3318.57510	0.01432
3316.51515	0.01432
3314.45520	0.01434
3312.39525	0.01432
3310.33531	0.01428
3308.27536	0.01425
3306.21541	0.01419
3304.15546	0.01413
3302.09552	0.01414
3300.03557	0.01419
3297.97562	0.01425
3295.91568	0.01428
3293.85573	0.01428
3291.79578	0.01434
3289.73583	0.01440
3287.67589	0.01445
3285.61594	0.01451
3283.55599	0.01448
3281.49604	0.01438
3279.43610	0.01436
3277.37615	0.01437
3275.31620	0.01435
3273.25626	0.01441
3271.19631	0.01448
3269.13636	0.01449
3267.07641	0.01447
3265.01647	0.01447
3262.95652	0.01447
3260.89657	0.01444
3258.83662	0.01443
3256.77668	0.01449
3254.71673	0.01451
3252.65678	0.01445
3250.59683	0.01438
3248.53689	0.01434
3246.47694	0.01432
3244.41699	0.01431
3242.35705	0.01434
3240.29710	0.01441
3238.23715	0.01443
3236.17720	0.01441
3234.11726	0.01446
3232.05731	0.01449
3229.99736	0.01441
3227.93741	0.01433
3225.87747	0.01431
3223.81752	0.01434
3221.75757	0.01434
3219.69763	0.01430
3217.63768	0.01432
3215.57773	0.01435
3213.51778	0.01433
3211.45784	0.01427
3209.39789	0.01420
3207.33794	0.01421
3205.27799	0.01428
3203.21805	0.01426
3201.15810	0.01417
3199.09815	0.01414
3197.03821	0.01417
3194.97826	0.01419
3192.91831	0.01419
3190.85836	0.01419
3188.79842	0.01419
3186.73847	0.01420
3184.67852	0.01418
3182.61857	0.01413
3180.55863	0.01409
3178.49868	0.01406
3176.43873	0.01408
3174.37878	0.01411
3172.31884	0.01406
3170.25889	0.01398
3168.19894	0.01397
3166.13900	0.01398
3164.07905	0.01398
3162.01910	0.01397
3159.95915	0.01396
3157.89921	0.01391
3155.83926	0.01382
3153.77931	0.01373
3151.71936	0.01368
3149.65942	0.01371
3147.59947	0.01381
3145.53952	0.01387
3143.47958	0.01383
3141.41963	0.01372
3139.35968	0.01359
3137.29973	0.01354
3135.23979	0.01357
3133.17984	0.01361
3131.11989	0.01365
3129.05994	0.01373
3127.00000	0.01379
3124.94005	0.01375
3122.88010	0.01364
3120.82016	0.01356
3118.76021	0.01352
3116.70026	0.01353
3114.64031	0.01354
3112.58037	0.01352
3110.52042	0.01353
3108.46047	0.01354
3106.40052	0.01352
3104.34058	0.01352
3102.28063	0.01350
3100.22068	0.01347
3098.16073	0.01349
3096.10079	0.01353
3094.04084	0.01356
3091.98089	0.01363
3089.92095	0.01368
3087.86100	0.01361
3085.80105	0.01350
3083.74110	0.01344
3081.68116	0.01341
3079.62121	0.01338
3077.56126	0.01341
3075.50131	0.01355
3073.44137	0.01366
3071.38142	0.01364
3069.32147	0.01357
3067.26153	0.01353
3065.20158	0.01348
3063.14163	0.01341
3061.08168	0.01340
3059.02174	0.01344
3056.96179	0.01346
3054.90184	0.01343
3052.84189	0.01342
3050.78195	0.01348
3048.72200	0.01348
3046.66205	0.01340
3044.60211	0.01334
3042.54216	0.01331
3040.48221	0.01331
3038.42226	0.01333
3036.36232	0.01333
3034.30237	0.01332
3032.24242	0.01333
3030.18247	0.01332
3028.12253	0.01324
3026.06258	0.01317
3024.00263	0.01317
3021.94268	0.01318
3019.88274	0.01320
3017.82279	0.01320
3015.76284	0.01317
3013.70290	0.01314
3011.64295	0.01313
3009.58300	0.01309
3007.52305	0.01305
3005.46311	0.01310
3003.40316	0.01320
3001.34321	0.01320
2999.28326	0.01314
2997.22332	0.01310
2995.16337	0.01309
2993.10342	0.01311
2991.04348	0.01311
2988.98353	0.01304
2986.92358	0.01299
2984.86363	0.01303
2982.80369	0.01312
2980.74374	0.01313
2978.68379	0.01311
2976.62384	0.01318
2974.56390	0.01326
2972.50395	0.01326
2970.44400	0.01327
2968.38406	0.01333
2966.32411	0.01337
2964.26416	0.01341
2962.20421	0.01346
2960.14427	0.01347
2958.08432	0.01348
2956.02437	0.01346
2953.96442	0.01344
2951.90448	0.01344
2949.84453	0.01347
2947.78458	0.01354
2945.72463	0.01367
2943.66469	0.01377
2941.60474	0.01378
2939.54479	0.01377
2937.48485	0.01384
2935.42490	0.01397
2933.36495	0.01406
2931.30500	0.01415
2929.24506	0.01425
2927.18511	0.01432
2925.12516	0.01431
2923.06521	0.01433
2921.00527	0.01444
2918.94532	0.01451
2916.88537	0.01442
2914.82543	0.01425
2912.76548	0.01412
2910.70553	0.01404
2908.64558	0.01396
2906.58564	0.01386
2904.52569	0.01379
2902.46574	0.01379
2900.40579	0.01378
2898.34585	0.01372
2896.28590	0.01365
2894.22595	0.01360
2892.16601	0.01357
2890.10606	0.01354
2888.04611	0.01354
2885.98616	0.01352
2883.92622	0.01347
2881.86627	0.01344
2879.80632	0.01343
2877.74637	0.01340
2875.68643	0.01337
2873.62648	0.01336
2871.56653	0.01331
2869.50658	0.01325
2867.44664	0.01323
2865.38669	0.01329
2863.32674	0.01337
2861.26680	0.01341
2859.20685	0.01340
2857.14690	0.01343
2855.08695	0.01352
2853.02701	0.01361
2850.96706	0.01368
2848.90711	0.01371
2846.84716	0.01367
2844.78722	0.01357
2842.72727	0.01343
2840.66732	0.01328
2838.60738	0.01318
2836.54743	0.01313
2834.48748	0.01307
2832.42753	0.01296
2830.36759	0.01289
2828.30764	0.01286
2826.24769	0.01281
2824.18774	0.01279
2822.12780	0.01283
2820.06785	0.01287
2818.00790	0.01285
2815.94796	0.01279
2813.88801	0.01271
2811.82806	0.01267
2809.76811	0.01268
2807.70817	0.01268
2805.64822	0.01265
2803.58827	0.01261
2801.52832	0.01257
2799.46838	0.01252
2797.40843	0.01248
2795.34848	0.01246
2793.28853	0.01245
2791.22859	0.01245
2789.16864	0.01247
2787.10869	0.01246
2785.04875	0.01242
2782.98880	0.01238
2780.92885	0.01233
2778.86890	0.01230
2776.80896	0.01230
2774.74901	0.01230
2772.68906	0.01228
2770.62911	0.01225
2768.56917	0.01221
2766.50922	0.01222
2764.44927	0.01227
2762.38933	0.01230
2760.32938	0.01225
2758.26943	0.01219
2756.20948	0.01216
2754.14954	0.01215
2752.08959	0.01213
2750.02964	0.01212
2747.96969	0.01211
2745.90975	0.01210
2743.84980	0.01207
2741.78985	0.01202
2739.72991	0.01200
2737.66996	0.01200
2735.61001	0.01198
2733.55006	0.01192
2731.49012	0.01190
2729.43017	0.01191
2727.37022	0.01189
2725.31027	0.01188
2723.25033	0.01189
2721.19038	0.01192
2719.13043	0.01194
2717.07048	0.01194
2715.01054	0.01195
2712.95059	0.01194
2710.89064	0.01192
2708.83070	0.01191
2706.77075	0.01189
2704.71080	0.01184
2702.65085	0.01179
2700.59091	0.01177
2698.53096	0.01178
2696.47101	0.01179
2694.41106	0.01177
2692.35112	0.01171
2690.29117	0.01167
2688.23122	0.01171
2686.17128	0.01175
2684.11133	0.01174
2682.05138	0.01170
2679.99143	0.01168
2677.93149	0.01171
2675.87154	0.01175
2673.81159	0.01175
2671.75164	0.01171
2669.69170	0.01174
2667.63175	0.01185
2665.57180	0.01199
2663.51186	0.01210
2661.45191	0.01216
2659.39196	0.01222
2657.33201	0.01230
2655.27207	0.01238
2653.21212	0.01240
2651.15217	0.01240
2649.09222	0.01242
2647.03228	0.01241
2644.97233	0.01237
2642.91238	0.01232
2640.85243	0.01225
2638.79249	0.01215
2636.73254	0.01205
2634.67259	0.01203
2632.61265	0.01206
2630.55270	0.01201
2628.49275	0.01193
2626.43280	0.01189
2624.37286	0.01184
2622.31291	0.01178
2620.25296	0.01176
2618.19301	0.01176
2616.13307	0.01178
2614.07312	0.01178
2612.01317	0.01171
2609.95323	0.01160
2607.89328	0.01151
2605.83333	0.01143
2603.77338	0.01138
2601.71344	0.01137
2599.65349	0.01134
2597.59354	0.01130
2595.53359	0.01128
2593.47365	0.01125
2591.41370	0.01116
2589.35375	0.01109
2587.29381	0.01105
2585.23386	0.01108
2583.17391	0.01116
2581.11396	0.01119
2579.05402	0.01110
2576.99407	0.01101
2574.93412	0.01097
2572.87417	0.01095
2570.81423	0.01091
2568.75428	0.01084
2566.69433	0.01075
2564.63438	0.01067
2562.57444	0.01075
2560.51449	0.01086
2558.45454	0.01079
2556.39460	0.01059
2554.33465	0.01048
2552.27470	0.01052
2550.21475	0.01060
2548.15481	0.01062
2546.09486	0.01057
2544.03491	0.01046
2541.97496	0.01036
2539.91502	0.01031
2537.85507	0.01037
2535.79512	0.01048
2533.73518	0.01052
2531.67523	0.01047
2529.61528	0.01036
2527.55533	0.01028
2525.49539	0.01032
2523.43544	0.01043
2521.37549	0.01044
2519.31554	0.01038
2517.25560	0.01032
2515.19565	0.01031
2513.13570	0.01029
2511.07576	0.01022
2509.01581	0.01017
2506.95586	0.01020
2504.89591	0.01022
2502.83597	0.01017
2500.77602	0.01015
2498.71607	0.01020
2496.65612	0.01025
2494.59618	0.01030
2492.53623	0.01031
2490.47628	0.01026
2488.41633	0.01017
2486.35639	0.01009
2484.29644	0.01005
2482.23649	0.01007
2480.17655	0.01013
2478.11660	0.01017
2476.05665	0.01015
2473.99670	0.01012
2471.93676	0.01008
2469.87681	0.01004
2467.81686	0.01004
2465.75691	0.01009
2463.69697	0.01013
2461.63702	0.01017
2459.57707	0.01019
2457.51713	0.01023
2455.45718	0.01027
2453.39723	0.01026
2451.33728	0.01017
2449.27734	0.01000
2447.21739	0.00985
2445.15744	0.00985
2443.09749	0.00987
2441.03755	0.00986
2438.97760	0.00987
2436.91765	0.00984
2434.85771	0.00981
2432.79776	0.00981
2430.73781	0.00976
2428.67786	0.00968
2426.61792	0.00963
2424.55797	0.00961
2422.49802	0.00959
2420.43807	0.00962
2418.37813	0.00965
2416.31818	0.00958
2414.25823	0.00947
2412.19828	0.00941
2410.13834	0.00935
2408.07839	0.00926
2406.01844	0.00921
2403.95850	0.00919
2401.89855	0.00920
2399.83860	0.00925
2397.77865	0.00928
2395.71871	0.00924
2393.65876	0.00923
2391.59881	0.00928
2389.53886	0.00927
2387.47892	0.00922
2385.41897	0.00921
2383.35902	0.00920
2381.29908	0.00918
2379.23913	0.00918
2377.17918	0.00920
2375.11923	0.00921
2373.05929	0.00910
2370.99934	0.00889
2368.93939	0.00880
2366.87944	0.00885
2364.81950	0.00893
2362.75955	0.00903
2360.69960	0.00914
2358.63966	0.00928
2356.57971	0.00938
2354.51976	0.00935
2352.45981	0.00930
2350.39987	0.00933
2348.33992	0.00945
2346.27997	0.00959
2344.22002	0.00965
2342.16008	0.00963
2340.10013	0.00959
2338.04018	0.00958
2335.98023	0.00959
2333.92029	0.00962
2331.86034	0.00974
2329.80039	0.01005
2327.74045	0.01075
2325.68050	0.01157
2323.62055	0.01180
2321.56060	0.01142
2319.50066	0.01094
2317.44071	0.01067
2315.38076	0.01064
2313.32081	0.01070
2311.26087	0.01065
2309.20092	0.01056
2307.14097	0.01055
2305.08103	0.01056
2303.02108	0.01055
2300.96113	0.01053
2298.90118	0.01055
2296.84124	0.01066
2294.78129	0.01081
2292.72134	0.01094
2290.66139	0.01114
2288.60145	0.01131
2286.54150	0.01131
2284.48155	0.01113
2282.42161	0.01088
2280.36166	0.01066
2278.30171	0.01049
2276.24176	0.01037
2274.18182	0.01030
2272.12187	0.01027
2270.06192	0.01016
2268.00197	0.00988
2265.94203	0.00965
2263.88208	0.00973
2261.82213	0.00991
2259.76218	0.00996
2257.70224	0.00979
2255.64229	0.00952
2253.58234	0.00928
2251.52240	0.00925
2249.46245	0.00944
2247.40250	0.00962
2245.34255	0.00961
2243.28261	0.00938
2241.22266	0.00917
2239.16271	0.00928
2237.10276	0.00946
2235.04282	0.00930
2232.98287	0.00902
2230.92292	0.00897
2228.86298	0.00913
2226.80303	0.00923
2224.74308	0.00926
2222.68313	0.00926
2220.62319	0.00912
2218.56324	0.00893
2216.50329	0.00881
2214.44334	0.00874
2212.38340	0.00869
2210.32345	0.00873
2208.26350	0.00881
2206.20356	0.00888
2204.14361	0.00900
2202.08366	0.00897
2200.02371	0.00869
2197.96377	0.00854
2195.90382	0.00862
2193.84387	0.00877
2191.78392	0.00901
2189.72398	0.00906
2187.66403	0.00896
2185.60408	0.00881
2183.54413	0.00839
2181.48419	0.00809
2179.42424	0.00820
2177.36429	0.00800
2175.30435	0.00753
2173.24440	0.00770
2171.18445	0.00840
2169.12450	0.00905
2167.06456	0.00957
2165.00461	0.00996
2162.94466	0.00955
2160.88471	0.00714
2158.82477	0.00392
2156.76482	0.00300
2154.70487	0.00396
2152.64493	0.00496
2150.58498	0.00547
2148.52503	0.00550
2146.46508	0.00549
2144.40514	0.00575
2142.34519	0.00602
2140.28524	0.00600
2138.22529	0.00570
2136.16535	0.00529
2134.10540	0.00505
2132.04545	0.00523
2129.98551	0.00576
2127.92556	0.00631
2125.86561	0.00673
2123.80566	0.00711
2121.74572	0.00750
2119.68577	0.00794
2117.62582	0.00836
2115.56587	0.00863
2113.50593	0.00862
2111.44598	0.00854
2109.38603	0.00853
2107.32608	0.00854
2105.26614	0.00856
2103.20619	0.00862
2101.14624	0.00866
2099.08630	0.00860
2097.02635	0.00834
2094.96640	0.00796
2092.90645	0.00780
2090.84651	0.00796
2088.78656	0.00828
2086.72661	0.00855
2084.66666	0.00869
2082.60672	0.00887
2080.54677	0.00908
2078.48682	0.00914
2076.42688	0.00903
2074.36693	0.00883
2072.30698	0.00868
2070.24703	0.00862
2068.18709	0.00854
2066.12714	0.00836
2064.06719	0.00821
2062.00724	0.00827
2059.94730	0.00841
2057.88735	0.00853
2055.82740	0.00867
2053.76746	0.00917
2051.70751	0.01000
2049.64756	0.01005
2047.58761	0.00926
2045.52767	0.00869
2043.46772	0.00865
2041.40777	0.00883
2039.34782	0.00898
2037.28788	0.00904
2035.22793	0.00869
2033.16798	0.00816
2031.10803	0.00773
2029.04809	0.00721
2026.98814	0.00687
2024.92819	0.00697
2022.86825	0.00722
2020.80830	0.00716
2018.74835	0.00700
2016.68840	0.00701
2014.62846	0.00693
2012.56851	0.00689
2010.50856	0.00715
2008.44861	0.00711
2006.38867	0.00669
2004.32872	0.00676
2002.26877	0.00734
2000.20883	0.00773
1998.14888	0.00766
1996.08893	0.00764
1994.02898	0.00797
1991.96904	0.00835
1989.90909	0.00864
1987.84914	0.00895
1985.78919	0.00936
1983.72925	0.00995
1981.66930	0.01029
1979.60935	0.00946
1977.54941	0.00780
1975.48946	0.00678
1973.42951	0.00650
1971.36956	0.00640
1969.30962	0.00641
1967.24967	0.00649
1965.18972	0.00675
1963.12977	0.00710
1961.06983	0.00701
1959.00988	0.00668
1956.94993	0.00670
1954.88998	0.00691
1952.83004	0.00707
1950.77009	0.00716
1948.71014	0.00705
1946.65020	0.00690
1944.59025	0.00701
1942.53030	0.00726
1940.47035	0.00727
1938.41041	0.00718
1936.35046	0.00721
1934.29051	0.00729
1932.23056	0.00738
1930.17062	0.00741
1928.11067	0.00737
1926.05072	0.00734
1923.99078	0.00736
1921.93083	0.00743
1919.87088	0.00753
1917.81093	0.00761
1915.75099	0.00774
1913.69104	0.00792
1911.63109	0.00802
1909.57114	0.00806
1907.51120	0.00809
1905.45125	0.00818
1903.39130	0.00827
1901.33136	0.00827
1899.27141	0.00822
1897.21146	0.00817
1895.15151	0.00804
1893.09157	0.00797
1891.03162	0.00803
1888.97167	0.00810
1886.91172	0.00824
1884.85178	0.00841
1882.79183	0.00847
1880.73188	0.00848
1878.67193	0.00851
1876.61199	0.00851
1874.55204	0.00847
1872.49209	0.00844
1870.43215	0.00849
1868.37220	0.00849
1866.31225	0.00840
1864.25230	0.00837
1862.19236	0.00838
1860.13241	0.00842
1858.07246	0.00845
1856.01251	0.00842
1853.95257	0.00838
1851.89262	0.00839
1849.83267	0.00842
1847.77273	0.00842
1845.71278	0.00838
1843.65283	0.00818
1841.59288	0.00801
1839.53294	0.00803
1837.47299	0.00815
1835.41304	0.00821
1833.35309	0.00822
1831.29315	0.00824
1829.23320	0.00820
1827.17325	0.00819
1825.11331	0.00824
1823.05336	0.00825
1820.99341	0.00815
1818.93346	0.00797
1816.87352	0.00789
1814.81357	0.00798
1812.75362	0.00818
1810.69367	0.00836
1808.63373	0.00847
1806.57378	0.00853
1804.51383	0.00860
1802.45388	0.00870
1800.39394	0.00870
1798.33399	0.00864
1796.27404	0.00870
1794.21410	0.00879
1792.15415	0.00875
1790.09420	0.00874
1788.03425	0.00889
1785.97431	0.00902
1783.91436	0.00904
1781.85441	0.00901
1779.79446	0.00899
1777.73452	0.00900
1775.67457	0.00907
1773.61462	0.00916
1771.55468	0.00912
1769.49473	0.00908
1767.43478	0.00910
1765.37483	0.00919
1763.31489	0.00933
1761.25494	0.00941
1759.19499	0.00944
1757.13504	0.00947
1755.07510	0.00951
1753.01515	0.00968
1750.95520	0.00988
1748.89526	0.00990
1746.83531	0.00990
1744.77536	0.01004
1742.71541	0.01021
1740.65547	0.01029
1738.59552	0.01042
1736.53557	0.01072
1734.47562	0.01081
1732.41568	0.01056
1730.35573	0.01056
1728.29578	0.01072
1726.23583	0.01088
1724.17589	0.01103
1722.11594	0.01118
1720.05599	0.01140
1717.99605	0.01145
1715.93610	0.01131
1713.87615	0.01139
1711.81620	0.01158
1709.75626	0.01180
1707.69631	0.01202
1705.63636	0.01219
1703.57641	0.01237
1701.51647	0.01257
1699.45652	0.01252
1697.39657	0.01245
1695.33663	0.01242
1693.27668	0.01261
1691.21673	0.01307
1689.15678	0.01345
1687.09684	0.01380
1685.03689	0.01392
1682.97694	0.01354
1680.91699	0.01360
1678.85705	0.01406
1676.79710	0.01447
1674.73715	0.01463
1672.67721	0.01482
1670.61726	0.01498
1668.55731	0.01481
1666.49736	0.01493
1664.43742	0.01532
1662.37747	0.01547
1660.31752	0.01556
1658.25757	0.01598
1656.19763	0.01666
1654.13768	0.01692
1652.07773	0.01614
1650.01778	0.01629
1647.95784	0.01673
1645.89789	0.01647
1643.83794	0.01643
1641.77800	0.01681
1639.71805	0.01725
1637.65810	0.01754
1635.59815	0.01716
1633.53821	0.01679
1631.47826	0.01713
1629.41831	0.01751
1627.35836	0.01759
1625.29842	0.01762
1623.23847	0.01751
1621.17852	0.01746
1619.11858	0.01774
1617.05863	0.01773
1614.99868	0.01744
1612.93873	0.01759
1610.87879	0.01782
1608.81884	0.01785
1606.75889	0.01781
1604.69894	0.01784
1602.63900	0.01790
1600.57905	0.01796
1598.51910	0.01806
1596.45916	0.01814
1594.39921	0.01815
1592.33926	0.01815
1590.27931	0.01815
1588.21937	0.01811
1586.15942	0.01806
1584.09947	0.01799
1582.03952	0.01795
1579.97958	0.01808
1577.91963	0.01821
1575.85968	0.01776
1573.79973	0.01743
1571.73979	0.01766
1569.67984	0.01752
1567.61989	0.01715
1565.55995	0.01714
1563.50000	0.01735
1561.44005	0.01776
1559.38010	0.01747
1557.32016	0.01630
1555.26021	0.01628
1553.20026	0.01649
1551.14031	0.01655
1549.08037	0.01656
1547.02042	0.01674
1544.96047	0.01703
1542.90053	0.01711
1540.84058	0.01660
1538.78063	0.01574
1536.72068	0.01582
1534.66074	0.01609
1532.60079	0.01589
1530.54084	0.01580
1528.48089	0.01599
1526.42095	0.01601
1524.36100	0.01602
1522.30105	0.01601
1520.24111	0.01577
1518.18116	0.01569
1516.12121	0.01566
1514.06126	0.01573
1512.00132	0.01602
1509.94137	0.01638
1507.88142	0.01632
1505.82147	0.01537
1503.76153	0.01521
1501.70158	0.01557
1499.64163	0.01577
1497.58168	0.01561
1495.52174	0.01531
1493.46179	0.01538
1491.40184	0.01559
1489.34190	0.01538
1487.28195	0.01501
1485.22200	0.01498
1483.16205	0.01508
1481.10211	0.01516
1479.04216	0.01530
1476.98221	0.01555
1474.92226	0.01577
1472.86232	0.01569
1470.80237	0.01557
1468.74242	0.01590
1466.68248	0.01631
1464.62253	0.01642
1462.56258	0.01653
1460.50263	0.01697
1458.44269	0.01726
1456.38274	0.01678
1454.32279	0.01657
1452.26284	0.01687
1450.20290	0.01713
1448.14295	0.01712
1446.08300	0.01697
1444.02306	0.01693
1441.96311	0.01697
1439.90316	0.01711
1437.84321	0.01721
1435.78327	0.01695
1433.72332	0.01688
1431.66337	0.01707
1429.60342	0.01711
1427.54348	0.01717
1425.48353	0.01736
1423.42358	0.01753
1421.36363	0.01770
1419.30369	0.01763
1417.24374	0.01732
1415.18379	0.01736
1413.12385	0.01754
1411.06390	0.01756
1409.00395	0.01751
1406.94400	0.01746
1404.88406	0.01731
1402.82411	0.01724
1400.76416	0.01734
1398.70421	0.01732
1396.64427	0.01716
1394.58432	0.01696
1392.52437	0.01685
1390.46443	0.01697
1388.40448	0.01703
1386.34453	0.01692
1384.28458	0.01689
1382.22464	0.01695
1380.16469	0.01700
1378.10474	0.01707
1376.04479	0.01710
1373.98485	0.01697
1371.92490	0.01688
1369.86495	0.01690
1367.80501	0.01688
1365.74506	0.01691
1363.68511	0.01690
1361.62516	0.01669
1359.56522	0.01657
1357.50527	0.01659
1355.44532	0.01656
1353.38537	0.01648
1351.32543	0.01645
1349.26548	0.01640
1347.20553	0.01630
1345.14558	0.01625
1343.08564	0.01629
1341.02569	0.01632
1338.96574	0.01622
1336.90580	0.01612
1334.84585	0.01613
1332.78590	0.01619
1330.72595	0.01619
1328.66601	0.01616
1326.60606	0.01612
1324.54611	0.01611
1322.48616	0.01614
1320.42622	0.01616
1318.36627	0.01610
1316.30632	0.01605
1314.24638	0.01606
1312.18643	0.01604
1310.12648	0.01597
1308.06653	0.01594
1306.00659	0.01595
1303.94664	0.01598
1301.88669	0.01602
1299.82674	0.01603
1297.76680	0.01606
1295.70685	0.01611
1293.64690	0.01617
1291.58696	0.01623
1289.52701	0.01631
1287.46706	0.01641
1285.40711	0.01655
1283.34717	0.01673
1281.28722	0.01690
1279.22727	0.01704
1277.16732	0.01717
1275.10738	0.01734
1273.04743	0.01748
1270.98748	0.01759
1268.92753	0.01772
1266.86759	0.01786
1264.80764	0.01800
1262.74769	0.01814
1260.68775	0.01828
1258.62780	0.01837
1256.56785	0.01848
1254.50790	0.01868
1252.44796	0.01894
1250.38801	0.01925
1248.32806	0.01955
1246.26811	0.01978
1244.20817	0.01999
1242.14822	0.02024
1240.08827	0.02055
1238.02833	0.02090
1235.96838	0.02131
1233.90843	0.02175
1231.84848	0.02217
1229.78854	0.02260
1227.72859	0.02309
1225.66864	0.02370
1223.60869	0.02446
1221.54875	0.02536
1219.48880	0.02638
1217.42885	0.02754
1215.36891	0.02871
1213.30896	0.02981
1211.24901	0.03089
1209.18906	0.03195
1207.12912	0.03295
1205.06917	0.03392
1203.00922	0.03486
1200.94927	0.03570
1198.88933	0.03648
1196.82938	0.03722
1194.76943	0.03787
1192.70949	0.03846
1190.64954	0.03904
1188.58959	0.03956
1186.52964	0.04007
1184.46970	0.04068
1182.40975	0.04139
1180.34980	0.04214
1178.28985	0.04296
1176.22991	0.04390
1174.16996	0.04503
1172.11001	0.04633
1170.05006	0.04773
1167.99012	0.04916
1165.93017	0.05048
1163.87022	0.05141
1161.81028	0.05158
1159.75033	0.05102
1157.69038	0.05036
1155.63043	0.05021
1153.57049	0.05068
1151.51054	0.05160
1149.45059	0.05271
1147.39064	0.05386
1145.33070	0.05502
1143.27075	0.05622
1141.21080	0.05749
1139.15086	0.05885
1137.09091	0.06028
1135.03096	0.06181
1132.97101	0.06343
1130.91107	0.06510
1128.85112	0.06684
1126.79117	0.06867
1124.73122	0.07052
1122.67128	0.07235
1120.61133	0.07421
1118.55138	0.07615
1116.49144	0.07811
1114.43149	0.08003
1112.37154	0.08197
1110.31159	0.08394
1108.25165	0.08592
1106.19170	0.08802
1104.13175	0.09022
1102.07180	0.09238
1100.01186	0.09451
1097.95191	0.09664
1095.89196	0.09870
1093.83201	0.10065
1091.77207	0.10249
1089.71212	0.10424
1087.65217	0.10575
1085.59223	0.10689
1083.53228	0.10761
1081.47233	0.10791
1079.41238	0.10780
1077.35244	0.10725
1075.29249	0.10625
1073.23254	0.10490
1071.17259	0.10347
1069.11265	0.10225
1067.05270	0.10137
1064.99275	0.10070
1062.93281	0.10003
1060.87286	0.09919
1058.81291	0.09821
1056.75296	0.09713
1054.69302	0.09595
1052.63307	0.09472
1050.57312	0.09355
1048.51317	0.09249
1046.45323	0.09153
1044.39328	0.09072
1042.33333	0.09011
1040.27339	0.08962
1038.21344	0.08915
1036.15349	0.08870
1034.09354	0.08821
1032.03360	0.08757
1029.97365	0.08680
1027.91370	0.08596
1025.85375	0.08514
1023.79381	0.08432
1021.73386	0.08351
1019.67391	0.08274
1017.61396	0.08205
1015.55402	0.08144
1013.49407	0.08088
1011.43412	0.08034
1009.37418	0.07976
1007.31423	0.07910
1005.25428	0.07838
1003.19433	0.07760
1001.13439	0.07675
999.07444	0.07588
997.01449	0.07500
994.95454	0.07413
992.89460	0.07323
990.83465	0.07233
988.77470	0.07143
986.71476	0.07054
984.65481	0.06967
982.59486	0.06872
980.53491	0.06770
978.47497	0.06669
976.41502	0.06570
974.35507	0.06471
972.29512	0.06372
970.23518	0.06275
968.17523	0.06184
966.11528	0.06096
964.05534	0.06007
961.99539	0.05919
959.93544	0.05832
957.87549	0.05750
955.81555	0.05675
953.75560	0.05600
951.69565	0.05531
949.63570	0.05472
947.57576	0.05412
945.51581	0.05350
943.45586	0.05291
941.39591	0.05236
939.33597	0.05183
937.27602	0.05134
935.21607	0.05086
933.15613	0.05036
931.09618	0.04985
929.03623	0.04929
926.97628	0.04879
924.91634	0.04842
922.85639	0.04806
920.79644	0.04764
918.73649	0.04728
916.67655	0.04701
914.61660	0.04669
912.55665	0.04626
910.49671	0.04581
908.43676	0.04530
906.37681	0.04463
904.31686	0.04385
902.25692	0.04309
900.19697	0.04241
898.13702	0.04175
896.07707	0.04114
894.01713	0.04052
891.95718	0.03989
889.89723	0.03935
887.83729	0.03893
885.77734	0.03855
883.71739	0.03812
881.65744	0.03764
879.59750	0.03716
877.53755	0.03669
875.47760	0.03617
873.41765	0.03569
871.35771	0.03524
869.29776	0.03471
867.23781	0.03423
865.17786	0.03383
863.11792	0.03341
861.05797	0.03295
858.99802	0.03249
856.93808	0.03210
854.87813	0.03180
852.81818	0.03153
850.75823	0.03125
848.69829	0.03092
846.63834	0.03055
844.57839	0.03026
842.51844	0.03008
840.45850	0.03000
838.39855	0.02991
836.33860	0.02975
834.27866	0.02967
832.21871	0.02967
830.15876	0.02968
828.09881	0.02970
826.03887	0.02975
823.97892	0.02986
821.91897	0.03003
819.85902	0.03031
817.79908	0.03087
815.73913	0.03177
813.67918	0.03313
811.61924	0.03525
809.55929	0.03848
807.49934	0.04296
805.43939	0.04855
803.37945	0.05455
801.31950	0.05999
799.25955	0.06387
797.19960	0.06542
795.13966	0.06470
793.07971	0.06282
791.01976	0.06100
788.95981	0.06003
786.89987	0.06043
784.83992	0.06230
782.77997	0.06507
780.72003	0.06771
778.66008	0.06897
776.60013	0.06815
774.54018	0.06557
772.48024	0.06231
770.42029	0.05928
768.36034	0.05664
766.30039	0.05440
764.24045	0.05261
762.18050	0.05121
760.12055	0.04996
758.06061	0.04871
756.00066	0.04753
753.94071	0.04651
751.88076	0.04566
749.82082	0.04491
747.76087	0.04420
745.70092	0.04352
743.64097	0.04287
741.58103	0.04222
739.52108	0.04161
737.46113	0.04113
735.40119	0.04074
733.34124	0.04036
731.28129	0.04004
729.22134	0.03975
727.16140	0.03944
725.10145	0.03910
723.04150	0.03880
720.98155	0.03856
718.92161	0.03829
716.86166	0.03798
714.80171	0.03772
712.74176	0.03756
710.68182	0.03754
708.62187	0.03766
706.56192	0.03800
704.50198	0.03861
702.44203	0.03970
700.38208	0.04176
698.32213	0.04480
696.26219	0.04767
694.20224	0.04881
692.14229	0.04794
690.08234	0.04602
688.02240	0.04402
685.96245	0.04244
683.90250	0.04127
681.84256	0.04028
679.78261	0.03941
677.72266	0.03870
675.66271	0.03815
673.60277	0.03783
671.54282	0.03778
669.48287	0.03756
667.42292	0.03673
665.36298	0.03622
663.30303	0.03606
661.24308	0.03577
659.18314	0.03557
657.12319	0.03564
655.06324	0.03574
653.00329	0.03563
650.94335	0.03546
648.88340	0.03534
646.82345	0.03531
644.76350	0.03529
642.70356	0.03528
640.64361	0.03528
638.58366	0.03521
636.52371	0.03501
634.46377	0.03480
632.40382	0.03467
630.34387	0.03460
628.28393	0.03456
626.22398	0.03454
624.16403	0.03453
622.10408	0.03457
620.04414	0.03453
617.98419	0.03446
615.92424	0.03456
613.86429	0.03483
611.80435	0.03510
609.74440	0.03527
607.68445	0.03541
605.62451	0.03562
603.56456	0.03583
601.50461	0.03605
599.44466	0.03630
597.38472	0.03641
595.32477	0.03644
593.26482	0.03658
591.20487	0.03681
589.14493	0.03710
587.08498	0.03742
585.02503	0.03768
582.96509	0.03790
580.90514	0.03811
578.84519	0.03828
576.78524	0.03844
574.72530	0.03862
572.66535	0.03886
570.60540	0.03918
568.54545	0.03953
566.48551	0.03991
564.42556	0.04020
562.36561	0.04037
560.30566	0.04062
558.24572	0.04119
556.18577	0.04201
554.12582	0.04286
552.06588	0.04380
550.00593	0.04484
547.94598	0.04603
545.88603	0.04772
543.82609	0.04994
541.76614	0.05249
539.70619	0.05525
537.64624	0.05811
535.58630	0.06099
533.52635	0.06390
531.46640	0.06668
529.40646	0.06912
527.34651	0.07130
525.28656	0.07319
523.22661	0.07453
521.16667	0.07535
519.10672	0.07567
517.04677	0.07558
514.98682	0.07525
512.92688	0.07456
510.86693	0.07353
508.80698	0.07244
506.74704	0.07170
504.68709	0.07184
502.62714	0.07326
500.56719	0.07572
498.50725	0.07866
496.44730	0.08185
494.38735	0.08514
492.32740	0.08848
490.26746	0.09175
488.20751	0.09495
486.14756	0.09827
484.08761	0.10194
482.02767	0.10596
479.96772	0.11008
477.90777	0.11431
475.84783	0.11885
473.78788	0.12362
471.72793	0.12799
469.66798	0.13137
467.60804	0.13467
465.54809	0.13841
463.48814	0.14137
461.42819	0.14292
459.36825	0.14321
457.30830	0.14188
455.24835	0.13952
453.18841	0.13674
451.12846	0.13351
449.06851	0.13050
447.00856	0.12747
444.94862	0.12379
442.88867	0.11979
440.82872	0.11648
438.76877	0.11421
436.70883	0.11199
434.64888	0.10952
432.58893	0.10751
430.52899	0.10592
428.46904	0.10434
426.40909	0.10202
424.34914	0.09897
422.28920	0.09633
420.22925	0.09382
418.16930	0.09135
416.10935	0.08960
414.04941	0.08717
411.98946	0.08381
409.92951	0.08033
407.86956	0.07740
405.80962	0.07686
403.74967	0.08087
401.68972	0.08991
399.62978	0.10298
