3996.29776	0.01338
3994.23781	0.01336
3992.17786	0.01338
3990.11791	0.01344
3988.05797	0.01342
3985.99802	0.01330
3983.93807	0.01325
3981.87813	0.01331
3979.81818	0.01333
3977.75823	0.01331
3975.69828	0.01336
3973.63834	0.01339
3971.57839	0.01334
3969.51844	0.01333
3967.45849	0.01332
3965.39855	0.01330
3963.33860	0.01333
3961.27865	0.01339
3959.21870	0.01344
3957.15876	0.01345
3955.09881	0.01336
3953.03886	0.01320
3950.97892	0.01321
3948.91897	0.01332
3946.85902	0.01332
3944.79907	0.01330
3942.73913	0.01334
3940.67918	0.01331
3938.61923	0.01324
3936.55928	0.01326
3934.49934	0.01336
3932.43939	0.01344
3930.37944	0.01340
3928.31950	0.01334
3926.25955	0.01334
3924.19960	0.01333
3922.13965	0.01326
3920.07971	0.01325
3918.01976	0.01332
3915.95981	0.01330
3913.89986	0.01320
3911.83992	0.01316
3909.77997	0.01315
3907.72002	0.01318
3905.66008	0.01328
3903.60013	0.01324
3901.54018	0.01310
3899.48023	0.01299
3897.42029	0.01291
3895.36034	0.01297
3893.30039	0.01321
3891.24044	0.01331
3889.18050	0.01310
3887.12055	0.01305
3885.06060	0.01322
3883.00065	0.01329
3880.94071	0.01330
3878.88076	0.01317
3876.82081	0.01308
3874.76087	0.01325
3872.70092	0.01341
3870.64097	0.01345
3868.58102	0.01330
3866.52108	0.01319
3864.46113	0.01330
3862.40118	0.01326
3860.34123	0.01312
3858.28129	0.01317
3856.22134	0.01342
3854.16139	0.01371
3852.10145	0.01342
3850.04150	0.01297
3847.98155	0.01289
3845.92160	0.01299
3843.86166	0.01309
3841.80171	0.01314
3839.74176	0.01331
3837.68181	0.01348
3835.62187	0.01332
3833.56192	0.01311
3831.50197	0.01304
3829.44203	0.01302
3827.38208	0.01313
3825.32213	0.01324
3823.26218	0.01335
3821.20224	0.01345
3819.14229	0.01324
3817.08234	0.01315
3815.02239	0.01309
3812.96245	0.01284
3810.90250	0.01284
3808.84255	0.01315
3806.78260	0.01338
3804.72266	0.01325
3802.66271	0.01317
3800.60276	0.01305
3798.54282	0.01283
3796.48287	0.01280
3794.42292	0.01276
3792.36297	0.01278
3790.30303	0.01295
3788.24308	0.01306
3786.18313	0.01304
3784.12318	0.01284
3782.06324	0.01265
3780.00329	0.01263
3777.94334	0.01257
3775.88340	0.01254
3773.82345	0.01267
3771.76350	0.01281
3769.70355	0.01287
3767.64361	0.01287
3765.58366	0.01294
3763.52371	0.01299
3761.46376	0.01308
3759.40382	0.01312
3757.34387	0.01289
3755.28392	0.01278
3753.22398	0.01308
3751.16403	0.01345
3749.10408	0.01324
3747.04413	0.01295
3744.98419	0.01300
3742.92424	0.01283
3740.86429	0.01254
3738.80434	0.01256
3736.74440	0.01281
3734.68445	0.01311
3732.62450	0.01309
3730.56455	0.01276
3728.50461	0.01254
3726.44466	0.01261
3724.38471	0.01269
3722.32477	0.01270
3720.26482	0.01270
3718.20487	0.01260
3716.14492	0.01251
3714.08498	0.01265
3712.02503	0.01301
3709.96508	0.01311
3707.90513	0.01285
3705.84519	0.01270
3703.78524	0.01284
3701.72529	0.01312
3699.66535	0.01326
3697.60540	0.01333
3695.54545	0.01341
3693.48550	0.01354
3691.42556	0.01378
3689.36561	0.01392
3687.30566	0.01364
3685.24571	0.01337
3683.18577	0.01338
3681.12582	0.01348
3679.06587	0.01356
3677.00593	0.01379
3674.94598	0.01389
3672.88603	0.01371
3670.82608	0.01376
3668.76614	0.01367
3666.70619	0.01344
3664.64624	0.01344
3662.58629	0.01350
3660.52635	0.01356
3658.46640	0.01371
3656.40645	0.01382
3654.34651	0.01375
3652.28656	0.01387
3650.22661	0.01418
3648.16666	0.01398
3646.10672	0.01348
3644.04677	0.01331
3641.98682	0.01342
3639.92687	0.01358
3637.86693	0.01364
3635.80698	0.01367
3633.74703	0.01370
3631.68708	0.01373
3629.62714	0.01384
3627.56719	0.01380
3625.50724	0.01365
3623.44730	0.01363
3621.38735	0.01367
3619.32740	0.01363
3617.26745	0.01345
3615.20751	0.01353
3613.14756	0.01380
3611.08761	0.01389
3609.02766	0.01385
3606.96772	0.01371
3604.90777	0.01357
3602.84782	0.01355
3600.78788	0.01358
3598.72793	0.01361
3596.66798	0.01367
3594.60803	0.01363
3592.54809	0.01354
3590.48814	0.01364
3588.42819	0.01385
3586.36824	0.01376
3584.30830	0.01347
3582.24835	0.01336
3580.18840	0.01342
3578.12846	0.01352
3576.06851	0.01356
3574.00856	0.01355
3571.94861	0.01362
3569.88867	0.01382
3567.82872	0.01400
3565.76877	0.01385
3563.70882	0.01360
3561.64888	0.01360
3559.58893	0.01368
3557.52898	0.01374
3555.46903	0.01378
3553.40909	0.01379
3551.34914	0.01376
3549.28919	0.01387
3547.22925	0.01413
3545.16930	0.01418
3543.10935	0.01404
3541.04940	0.01397
3538.98946	0.01402
3536.92951	0.01407
3534.86956	0.01405
3532.80961	0.01408
3530.74967	0.01416
3528.68972	0.01417
3526.62977	0.01421
3524.56983	0.01434
3522.50988	0.01438
3520.44993	0.01435
3518.38998	0.01441
3516.33004	0.01445
3514.27009	0.01442
3512.21014	0.01441
3510.15019	0.01446
3508.09025	0.01461
3506.03030	0.01480
3503.97035	0.01486
3501.91041	0.01472
3499.85046	0.01456
3497.79051	0.01456
3495.73056	0.01461
3493.67062	0.01454
3491.61067	0.01452
3489.55072	0.01462
3487.49077	0.01473
3485.43083	0.01477
3483.37088	0.01483
3481.31093	0.01491
3479.25098	0.01492
3477.19104	0.01488
3475.13109	0.01485
3473.07114	0.01490
3471.01120	0.01496
3468.95125	0.01498
3466.89130	0.01503
3464.83135	0.01509
3462.77141	0.01515
3460.71146	0.01517
3458.65151	0.01512
3456.59156	0.01509
3454.53162	0.01516
3452.47167	0.01526
3450.41172	0.01530
3448.35178	0.01529
3446.29183	0.01524
3444.23188	0.01522
3442.17193	0.01526
3440.11199	0.01532
3438.05204	0.01534
3435.99209	0.01530
3433.93214	0.01524
3431.87220	0.01523
3429.81225	0.01527
3427.75230	0.01536
3425.69236	0.01544
3423.63241	0.01549
3421.57246	0.01548
3419.51251	0.01544
3417.45257	0.01539
3415.39262	0.01543
3413.33267	0.01557
3411.27272	0.01565
3409.21278	0.01564
3407.15283	0.01563
3405.09288	0.01564
3403.03293	0.01569
3400.97299	0.01570
3398.91304	0.01561
3396.85309	0.01553
3394.79315	0.01553
3392.73320	0.01555
3390.67325	0.01557
3388.61330	0.01566
3386.55336	0.01569
3384.49341	0.01555
3382.43346	0.01543
3380.37351	0.01549
3378.31357	0.01556
3376.25362	0.01555
3374.19367	0.01559
3372.13373	0.01566
3370.07378	0.01570
3368.01383	0.01571
3365.95388	0.01573
3363.89394	0.01574
3361.83399	0.01575
3359.77404	0.01571
3357.71409	0.01565
3355.65415	0.01567
3353.59420	0.01571
3351.53425	0.01567
3349.47431	0.01564
3347.41436	0.01571
3345.35441	0.01582
3343.29446	0.01584
3341.23452	0.01580
3339.17457	0.01584
3337.11462	0.01593
3335.05467	0.01598
3332.99473	0.01595
3330.93478	0.01589
3328.87483	0.01581
3326.81488	0.01575
3324.75494	0.01579
3322.69499	0.01592
3320.63504	0.01600
3318.57510	0.01602
3316.51515	0.01601
3314.45520	0.01598
3312.39525	0.01595
3310.33531	0.01598
3308.27536	0.01609
3306.21541	0.01614
3304.15546	0.01610
3302.09552	0.01607
3300.03557	0.01605
3297.97562	0.01600
3295.91568	0.01598
3293.85573	0.01600
3291.79578	0.01603
3289.73583	0.01602
3287.67589	0.01604
3285.61594	0.01607
3283.55599	0.01603
3281.49604	0.01599
3279.43610	0.01604
3277.37615	0.01611
3275.31620	0.01613
3273.25626	0.01614
3271.19631	0.01615
3269.13636	0.01617
3267.07641	0.01617
3265.01647	0.01613
3262.95652	0.01612
3260.89657	0.01612
3258.83662	0.01618
3256.77668	0.01628
3254.71673	0.01627
3252.65678	0.01613
3250.59683	0.01602
3248.53689	0.01602
3246.47694	0.01608
3244.41699	0.01613
3242.35705	0.01614
3240.29710	0.01613
3238.23715	0.01608
3236.17720	0.01605
3234.11726	0.01607
3232.05731	0.01608
3229.99736	0.01610
3227.93741	0.01610
3225.87747	0.01608
3223.81752	0.01609
3221.75757	0.01613
3219.69763	0.01615
3217.63768	0.01612
3215.57773	0.01603
3213.51778	0.01600
3211.45784	0.01607
3209.39789	0.01611
3207.33794	0.01610
3205.27799	0.01606
3203.21805	0.01599
3201.15810	0.01596
3199.09815	0.01598
3197.03821	0.01601
3194.97826	0.01604
3192.91831	0.01602
3190.85836	0.01596
3188.79842	0.01593
3186.73847	0.01595
3184.67852	0.01596
3182.61857	0.01595
3180.55863	0.01592
3178.49868	0.01588
3176.43873	0.01587
3174.37878	0.01588
3172.31884	0.01581
3170.25889	0.01571
3168.19894	0.01568
3166.13900	0.01570
3164.07905	0.01575
3162.01910	0.01582
3159.95915	0.01583
3157.89921	0.01577
3155.83926	0.01569
3153.77931	0.01562
3151.71936	0.01558
3149.65942	0.01558
3147.59947	0.01562
3145.53952	0.01564
3143.47958	0.01559
3141.41963	0.01550
3139.35968	0.01544
3137.29973	0.01543
3135.23979	0.01549
3133.17984	0.01555
3131.11989	0.01554
3129.05994	0.01553
3127.00000	0.01553
3124.94005	0.01548
3122.88010	0.01542
3120.82016	0.01541
3118.76021	0.01538
3116.70026	0.01534
3114.64031	0.01533
3112.58037	0.01531
3110.52042	0.01534
3108.46047	0.01540
3106.40052	0.01541
3104.34058	0.01543
3102.28063	0.01548
3100.22068	0.01547
3098.16073	0.01541
3096.10079	0.01537
3094.04084	0.01536
3091.98089	0.01538
3089.92095	0.01540
3087.86100	0.01536
3085.80105	0.01530
3083.74110	0.01529
3081.68116	0.01531
3079.62121	0.01527
3077.56126	0.01524
3075.50131	0.01532
3073.44137	0.01541
3071.38142	0.01534
3069.32147	0.01526
3067.26153	0.01534
3065.20158	0.01545
3063.14163	0.01545
3061.08168	0.01537
3059.02174	0.01533
3056.96179	0.01535
3054.90184	0.01535
3052.84189	0.01534
3050.78195	0.01536
3048.72200	0.01539
3046.66205	0.01535
3044.60211	0.01532
3042.54216	0.01534
3040.48221	0.01545
3038.42226	0.01556
3036.36232	0.01558
3034.30237	0.01551
3032.24242	0.01550
3030.18247	0.01560
3028.12253	0.01569
3026.06258	0.01572
3024.00263	0.01579
3021.94268	0.01591
3019.88274	0.01601
3017.82279	0.01610
3015.76284	0.01621
3013.70290	0.01630
3011.64295	0.01639
3009.58300	0.01649
3007.52305	0.01663
3005.46311	0.01684
3003.40316	0.01707
3001.34321	0.01724
2999.28326	0.01735
2997.22332	0.01743
2995.16337	0.01750
2993.10342	0.01765
2991.04348	0.01789
2988.98353	0.01809
2986.92358	0.01811
2984.86363	0.01806
2982.80369	0.01803
2980.74374	0.01801
2978.68379	0.01801
2976.62384	0.01805
2974.56390	0.01810
2972.50395	0.01812
2970.44400	0.01811
2968.38406	0.01805
2966.32411	0.01796
2964.26416	0.01786
2962.20421	0.01777
2960.14427	0.01767
2958.08432	0.01761
2956.02437	0.01751
2953.96442	0.01736
2951.90448	0.01724
2949.84453	0.01718
2947.78458	0.01718
2945.72463	0.01723
2943.66469	0.01729
2941.60474	0.01727
2939.54479	0.01723
2937.48485	0.01730
2935.42490	0.01737
2933.36495	0.01738
2931.30500	0.01746
2929.24506	0.01761
2927.18511	0.01772
2925.12516	0.01779
2923.06521	0.01788
2921.00527	0.01798
2918.94532	0.01802
2916.88537	0.01796
2914.82543	0.01786
2912.76548	0.01778
2910.70553	0.01773
2908.64558	0.01768
2906.58564	0.01764
2904.52569	0.01766
2902.46574	0.01774
2900.40579	0.01773
2898.34585	0.01753
2896.28590	0.01731
2894.22595	0.01717
2892.16601	0.01712
2890.10606	0.01713
2888.04611	0.01712
2885.98616	0.01707
2883.92622	0.01697
2881.86627	0.01684
2879.80632	0.01669
2877.74637	0.01655
2875.68643	0.01642
2873.62648	0.01627
2871.56653	0.01614
2869.50658	0.01608
2867.44664	0.01605
2865.38669	0.01603
2863.32674	0.01599
2861.26680	0.01590
2859.20685	0.01576
2857.14690	0.01564
2855.08695	0.01563
2853.02701	0.01571
2850.96706	0.01573
2848.90711	0.01563
2846.84716	0.01550
2844.78722	0.01538
2842.72727	0.01521
2840.66732	0.01502
2838.60738	0.01487
2836.54743	0.01473
2834.48748	0.01461
2832.42753	0.01455
2830.36759	0.01454
2828.30764	0.01451
2826.24769	0.01442
2824.18774	0.01436
2822.12780	0.01436
2820.06785	0.01434
2818.00790	0.01432
2815.94796	0.01427
2813.88801	0.01417
2811.82806	0.01408
2809.76811	0.01405
2807.70817	0.01404
2805.64822	0.01399
2803.58827	0.01394
2801.52832	0.01392
2799.46838	0.01396
2797.40843	0.01400
2795.34848	0.01398
2793.28853	0.01392
2791.22859	0.01383
2789.16864	0.01376
2787.10869	0.01375
2785.04875	0.01376
2782.98880	0.01372
2780.92885	0.01367
2778.86890	0.01365
2776.80896	0.01362
2774.74901	0.01359
2772.68906	0.01356
2770.62911	0.01353
2768.56917	0.01349
2766.50922	0.01349
2764.44927	0.01350
2762.38933	0.01349
2760.32938	0.01345
2758.26943	0.01340
2756.20948	0.01336
2754.14954	0.01335
2752.08959	0.01338
2750.02964	0.01339
2747.96969	0.01333
2745.90975	0.01327
2743.84980	0.01325
2741.78985	0.01324
2739.72991	0.01322
2737.66996	0.01320
2735.61001	0.01316
2733.55006	0.01312
2731.49012	0.01310
2729.43017	0.01308
2727.37022	0.01306
2725.31027	0.01303
2723.25033	0.01297
2721.19038	0.01293
2719.13043	0.01295
2717.07048	0.01298
2715.01054	0.01299
2712.95059	0.01297
2710.89064	0.01291
2708.83070	0.01285
2706.77075	0.01284
2704.71080	0.01282
2702.65085	0.01280
2700.59091	0.01278
2698.53096	0.01275
2696.47101	0.01270
2694.41106	0.01264
2692.35112	0.01260
2690.29117	0.01260
2688.23122	0.01264
2686.17128	0.01264
2684.11133	0.01258
2682.05138	0.01253
2679.99143	0.01252
2677.93149	0.01256
2675.87154	0.01261
2673.81159	0.01262
2671.75164	0.01259
2669.69170	0.01260
2667.63175	0.01273
2665.57180	0.01298
2663.51186	0.01318
2661.45191	0.01329
2659.39196	0.01337
2657.33201	0.01342
2655.27207	0.01342
2653.21212	0.01344
2651.15217	0.01351
2649.09222	0.01358
2647.03228	0.01359
2644.97233	0.01355
2642.91238	0.01350
2640.85243	0.01344
2638.79249	0.01334
2636.73254	0.01326
2634.67259	0.01323
2632.61265	0.01322
2630.55270	0.01315
2628.49275	0.01302
2626.43280	0.01292
2624.37286	0.01288
2622.31291	0.01285
2620.25296	0.01281
2618.19301	0.01278
2616.13307	0.01276
2614.07312	0.01270
2612.01317	0.01264
2609.95323	0.01262
2607.89328	0.01256
2605.83333	0.01249
2603.77338	0.01244
2601.71344	0.01237
2599.65349	0.01231
2597.59354	0.01227
2595.53359	0.01222
2593.47365	0.01214
2591.41370	0.01206
2589.35375	0.01199
2587.29381	0.01191
2585.23386	0.01186
2583.17391	0.01189
2581.11396	0.01193
2579.05402	0.01187
2576.99407	0.01175
2574.93412	0.01171
2572.87417	0.01174
2570.81423	0.01170
2568.75428	0.01159
2566.69433	0.01154
2564.63438	0.01152
2562.57444	0.01149
2560.51449	0.01145
2558.45454	0.01139
2556.39460	0.01127
2554.33465	0.01114
2552.27470	0.01111
2550.21475	0.01115
2548.15481	0.01109
2546.09486	0.01098
2544.03491	0.01094
2541.97496	0.01095
2539.91502	0.01101
2537.85507	0.01115
2535.79512	0.01120
2533.73518	0.01109
2531.67523	0.01094
2529.61528	0.01083
2527.55533	0.01075
2525.49539	0.01080
2523.43544	0.01095
2521.37549	0.01099
2519.31554	0.01089
2517.25560	0.01079
2515.19565	0.01075
2513.13570	0.01075
2511.07576	0.01070
2509.01581	0.01064
2506.95586	0.01063
2504.89591	0.01061
2502.83597	0.01054
2500.77602	0.01055
2498.71607	0.01064
2496.65612	0.01066
2494.59618	0.01065
2492.53623	0.01067
2490.47628	0.01068
2488.41633	0.01063
2486.35639	0.01051
2484.29644	0.01041
2482.23649	0.01042
2480.17655	0.01044
2478.11660	0.01046
2476.05665	0.01050
2473.99670	0.01055
2471.93676	0.01056
2469.87681	0.01048
2467.81686	0.01041
2465.75691	0.01045
2463.69697	0.01049
2461.63702	0.01047
2459.57707	0.01054
2457.51713	0.01072
2455.45718	0.01082
2453.39723	0.01077
2451.33728	0.01070
2449.27734	0.01058
2447.21739	0.01045
2445.15744	0.01037
2443.09749	0.01025
2441.03755	0.01020
2438.97760	0.01025
2436.91765	0.01024
2434.85771	0.01019
2432.79776	0.01018
2430.73781	0.01011
2428.67786	0.00996
2426.61792	0.00987
2424.55797	0.00988
2422.49802	0.00994
2420.43807	0.01000
2418.37813	0.00996
2416.31818	0.00981
2414.25823	0.00970
2412.19828	0.00970
2410.13834	0.00968
2408.07839	0.00955
2406.01844	0.00944
2403.95850	0.00940
2401.89855	0.00935
2399.83860	0.00934
2397.77865	0.00931
2395.71871	0.00925
2393.65876	0.00929
2391.59881	0.00935
2389.53886	0.00934
2387.47892	0.00933
2385.41897	0.00937
2383.35902	0.00941
2381.29908	0.00948
2379.23913	0.00965
2377.17918	0.00986
2375.11923	0.01005
2373.05929	0.01015
2370.99934	0.01016
2368.93939	0.01028
2366.87944	0.01064
2364.81950	0.01108
2362.75955	0.01142
2360.69960	0.01159
2358.63966	0.01159
2356.57971	0.01148
2354.51976	0.01131
2352.45981	0.01112
2350.39987	0.01092
2348.33992	0.01088
2346.27997	0.01108
2344.22002	0.01140
2342.16008	0.01148
2340.10013	0.01138
2338.04018	0.01137
2335.98023	0.01144
2333.92029	0.01148
2331.86034	0.01158
2329.80039	0.01201
2327.74045	0.01307
2325.68050	0.01413
2323.62055	0.01416
2321.56060	0.01344
2319.50066	0.01277
2317.44071	0.01232
2315.38076	0.01208
2313.32081	0.01194
2311.26087	0.01180
2309.20092	0.01167
2307.14097	0.01156
2305.08103	0.01144
2303.02108	0.01141
2300.96113	0.01146
2298.90118	0.01149
2296.84124	0.01159
2294.78129	0.01181
2292.72134	0.01204
2290.66139	0.01219
2288.60145	0.01225
2286.54150	0.01210
2284.48155	0.01173
2282.42161	0.01133
2280.36166	0.01107
2278.30171	0.01097
2276.24176	0.01089
2274.18182	0.01079
2272.12187	0.01073
2270.06192	0.01057
2268.00197	0.01023
2265.94203	0.00993
2263.88208	0.00988
2261.82213	0.01002
2259.76218	0.01016
2257.70224	0.01003
2255.64229	0.00966
2253.58234	0.00941
2251.52240	0.00935
2249.46245	0.00945
2247.40250	0.00962
2245.34255	0.00969
2243.28261	0.00964
2241.22266	0.00963
2239.16271	0.00966
2237.10276	0.00957
2235.04282	0.00932
2232.98287	0.00913
2230.92292	0.00911
2228.86298	0.00916
2226.80303	0.00916
2224.74308	0.00921
2222.68313	0.00932
2220.62319	0.00925
2218.56324	0.00890
2216.50329	0.00853
2214.44334	0.00836
2212.38340	0.00835
2210.32345	0.00841
2208.26350	0.00858
2206.20356	0.00888
2204.14361	0.00908
2202.08366	0.00889
2200.02371	0.00850
2197.96377	0.00843
2195.90382	0.00857
2193.84387	0.00852
2191.78392	0.00854
2189.72398	0.00871
2187.66403	0.00876
2185.60408	0.00848
2183.54413	0.00789
2181.48419	0.00767
2179.42424	0.00793
2177.36429	0.00777
2175.30435	0.00751
2173.24440	0.00801
2171.18445	0.00892
2169.12450	0.00960
2167.06456	0.01008
2165.00461	0.01034
2162.94466	0.00942
2160.88471	0.00590
2158.82477	0.00197
2156.76482	0.00112
2154.70487	0.00213
2152.64493	0.00306
2150.58498	0.00373
2148.52503	0.00407
2146.46508	0.00417
2144.40514	0.00417
2142.34519	0.00420
2140.28524	0.00429
2138.22529	0.00415
2136.16535	0.00363
2134.10540	0.00328
2132.04545	0.00361
2129.98551	0.00434
2127.92556	0.00505
2125.86561	0.00564
2123.80566	0.00613
2121.74572	0.00660
2119.68577	0.00711
2117.62582	0.00763
2115.56587	0.00799
2113.50593	0.00809
2111.44598	0.00808
2109.38603	0.00805
2107.32608	0.00799
2105.26614	0.00787
2103.20619	0.00779
2101.14624	0.00788
2099.08630	0.00791
2097.02635	0.00753
2094.96640	0.00702
2092.90645	0.00699
2090.84651	0.00745
2088.78656	0.00793
2086.72661	0.00812
2084.66666	0.00812
2082.60672	0.00814
2080.54677	0.00822
2078.48682	0.00835
2076.42688	0.00839
2074.36693	0.00831
2072.30698	0.00830
2070.24703	0.00828
2068.18709	0.00813
2066.12714	0.00800
2064.06719	0.00798
2062.00724	0.00806
2059.94730	0.00818
2057.88735	0.00821
2055.82740	0.00825
2053.76746	0.00887
2051.70751	0.00971
2049.64756	0.00945
2047.58761	0.00866
2045.52767	0.00843
2043.46772	0.00853
2041.40777	0.00874
2039.34782	0.00885
2037.28788	0.00865
2035.22793	0.00818
2033.16798	0.00779
2031.10803	0.00741
2029.04809	0.00672
2026.98814	0.00614
2024.92819	0.00616
2022.86825	0.00649
2020.80830	0.00658
2018.74835	0.00633
2016.68840	0.00614
2014.62846	0.00620
2012.56851	0.00638
2010.50856	0.00644
2008.44861	0.00586
2006.38867	0.00523
2004.32872	0.00555
2002.26877	0.00636
2000.20883	0.00696
1998.14888	0.00722
1996.08893	0.00736
1994.02898	0.00772
1991.96904	0.00803
1989.90909	0.00801
1987.84914	0.00819
1985.78919	0.00890
1983.72925	0.00988
1981.66930	0.01038
1979.60935	0.00924
1977.54941	0.00690
1975.48946	0.00559
1973.42951	0.00564
1971.36956	0.00570
1969.30962	0.00537
1967.24967	0.00506
1965.18972	0.00520
1963.12977	0.00557
1961.06983	0.00547
1959.00988	0.00523
1956.94993	0.00540
1954.88998	0.00562
1952.83004	0.00574
1950.77009	0.00580
1948.71014	0.00572
1946.65020	0.00557
1944.59025	0.00567
1942.53030	0.00597
1940.47035	0.00618
1938.41041	0.00634
1936.35046	0.00637
1934.29051	0.00620
1932.23056	0.00604
1930.17062	0.00611
1928.11067	0.00630
1926.05072	0.00639
1923.99078	0.00651
1921.93083	0.00673
1919.87088	0.00687
1917.81093	0.00687
1915.75099	0.00693
1913.69104	0.00706
1911.63109	0.00712
1909.57114	0.00709
1907.51120	0.00710
1905.45125	0.00720
1903.39130	0.00736
1901.33136	0.00748
1899.27141	0.00748
1897.21146	0.00737
1895.15151	0.00731
1893.09157	0.00738
1891.03162	0.00748
1888.97167	0.00750
1886.91172	0.00757
1884.85178	0.00773
1882.79183	0.00783
1880.73188	0.00782
1878.67193	0.00782
1876.61199	0.00783
1874.55204	0.00785
1872.49209	0.00791
1870.43215	0.00797
1868.37220	0.00789
1866.31225	0.00774
1864.25230	0.00773
1862.19236	0.00778
1860.13241	0.00778
1858.07246	0.00777
1856.01251	0.00773
1853.95257	0.00759
1851.89262	0.00740
1849.83267	0.00729
1847.77273	0.00733
1845.71278	0.00736
1843.65283	0.00721
1841.59288	0.00704
1839.53294	0.00706
1837.47299	0.00713
1835.41304	0.00712
1833.35309	0.00709
1831.29315	0.00719
1829.23320	0.00724
1827.17325	0.00716
1825.11331	0.00713
1823.05336	0.00714
1820.99341	0.00702
1818.93346	0.00674
1816.87352	0.00661
1814.81357	0.00680
1812.75362	0.00714
1810.69367	0.00740
1808.63373	0.00750
1806.57378	0.00752
1804.51383	0.00757
1802.45388	0.00769
1800.39394	0.00779
1798.33399	0.00779
1796.27404	0.00774
1794.21410	0.00777
1792.15415	0.00782
1790.09420	0.00780
1788.03425	0.00785
1785.97431	0.00795
1783.91436	0.00798
1781.85441	0.00793
1779.79446	0.00786
1777.73452	0.00783
1775.67457	0.00790
1773.61462	0.00802
1771.55468	0.00805
1769.49473	0.00798
1767.43478	0.00794
1765.37483	0.00793
1763.31489	0.00794
1761.25494	0.00792
1759.19499	0.00796
1757.13504	0.00804
1755.07510	0.00805
1753.01515	0.00814
1750.95520	0.00835
1748.89526	0.00845
1746.83531	0.00839
1744.77536	0.00839
1742.71541	0.00848
1740.65547	0.00855
1738.59552	0.00860
1736.53557	0.00871
1734.47562	0.00882
1732.41568	0.00878
1730.35573	0.00879
1728.29578	0.00886
1726.23583	0.00889
1724.17589	0.00893
1722.11594	0.00906
1720.05599	0.00934
1717.99605	0.00960
1715.93610	0.00960
1713.87615	0.00954
1711.81620	0.00958
1709.75626	0.00967
1707.69631	0.00984
1705.63636	0.00999
1703.57641	0.01010
1701.51647	0.01031
1699.45652	0.01049
1697.39657	0.01052
1695.33663	0.01043
1693.27668	0.01044
1691.21673	0.01067
1689.15678	0.01092
1687.09684	0.01113
1685.03689	0.01129
1682.97694	0.01125
1680.91699	0.01127
1678.85705	0.01148
1676.79710	0.01171
1674.73715	0.01185
1672.67721	0.01198
1670.61726	0.01215
1668.55731	0.01216
1666.49736	0.01214
1664.43742	0.01229
1662.37747	0.01242
1660.31752	0.01248
1658.25757	0.01267
1656.19763	0.01306
1654.13768	0.01339
1652.07773	0.01315
1650.01778	0.01313
1647.95784	0.01338
1645.89789	0.01336
1643.83794	0.01328
1641.77800	0.01342
1639.71805	0.01367
1637.65810	0.01397
1635.59815	0.01398
1633.53821	0.01374
1631.47826	0.01379
1629.41831	0.01403
1627.35836	0.01420
1625.29842	0.01431
1623.23847	0.01435
1621.17852	0.01436
1619.11858	0.01452
1617.05863	0.01466
1614.99868	0.01457
1612.93873	0.01453
1610.87879	0.01455
1608.81884	0.01456
1606.75889	0.01458
1604.69894	0.01459
1602.63900	0.01457
1600.57905	0.01452
1598.51910	0.01451
1596.45916	0.01453
1594.39921	0.01452
1592.33926	0.01446
1590.27931	0.01440
1588.21937	0.01437
1586.15942	0.01435
1584.09947	0.01430
1582.03952	0.01424
1579.97958	0.01427
1577.91963	0.01437
1575.85968	0.01427
1573.79973	0.01413
1571.73979	0.01421
1569.67984	0.01417
1567.61989	0.01397
1565.55995	0.01388
1563.50000	0.01391
1561.44005	0.01409
1559.38010	0.01414
1557.32016	0.01364
1555.26021	0.01345
1553.20026	0.01340
1551.14031	0.01332
1549.08037	0.01325
1547.02042	0.01332
1544.96047	0.01349
1542.90053	0.01363
1540.84058	0.01353
1538.78063	0.01308
1536.72068	0.01292
1534.66074	0.01299
1532.60079	0.01290
1530.54084	0.01281
1528.48089	0.01286
1526.42095	0.01287
1524.36100	0.01286
1522.30105	0.01289
1520.24111	0.01270
1518.18116	0.01241
1516.12121	0.01217
1514.06126	0.01205
1512.00132	0.01215
1509.94137	0.01235
1507.88142	0.01243
1505.82147	0.01201
1503.76153	0.01171
1501.70158	0.01169
1499.64163	0.01174
1497.58168	0.01177
1495.52174	0.01169
1493.46179	0.01168
1491.40184	0.01176
1489.34190	0.01173
1487.28195	0.01162
1485.22200	0.01161
1483.16205	0.01167
1481.10211	0.01173
1479.04216	0.01183
1476.98221	0.01201
1474.92226	0.01226
1472.86232	0.01242
1470.80237	0.01241
1468.74242	0.01246
1466.68248	0.01259
1464.62253	0.01261
1462.56258	0.01265
1460.50263	0.01291
1458.44269	0.01327
1456.38274	0.01327
1454.32279	0.01313
1452.26284	0.01316
1450.20290	0.01323
1448.14295	0.01324
1446.08300	0.01320
1444.02306	0.01322
1441.96311	0.01325
1439.90316	0.01333
1437.84321	0.01347
1435.78327	0.01347
1433.72332	0.01343
1431.66337	0.01349
1429.60342	0.01351
1427.54348	0.01351
1425.48353	0.01360
1423.42358	0.01374
1421.36363	0.01391
1419.30369	0.01404
1417.24374	0.01401
1415.18379	0.01404
1413.12385	0.01422
1411.06390	0.01438
1409.00395	0.01440
1406.94400	0.01433
1404.88406	0.01420
1402.82411	0.01410
1400.76416	0.01413
1398.70421	0.01412
1396.64427	0.01413
1394.58432	0.01419
1392.52437	0.01406
1390.46443	0.01386
1388.40448	0.01376
1386.34453	0.01370
1384.28458	0.01371
1382.22464	0.01376
1380.16469	0.01376
1378.10474	0.01372
1376.04479	0.01368
1373.98485	0.01355
1371.92490	0.01336
1369.86495	0.01321
1367.80501	0.01308
1365.74506	0.01299
1363.68511	0.01291
1361.62516	0.01273
1359.56522	0.01259
1357.50527	0.01250
1355.44532	0.01239
1353.38537	0.01231
1351.32543	0.01226
1349.26548	0.01218
1347.20553	0.01209
1345.14558	0.01204
1343.08564	0.01202
1341.02569	0.01204
1338.96574	0.01203
1336.90580	0.01199
1334.84585	0.01197
1332.78590	0.01196
1330.72595	0.01191
1328.66601	0.01185
1326.60606	0.01182
1324.54611	0.01182
1322.48616	0.01184
1320.42622	0.01187
1318.36627	0.01190
1316.30632	0.01194
1314.24638	0.01197
1312.18643	0.01198
1310.12648	0.01197
1308.06653	0.01196
1306.00659	0.01200
1303.94664	0.01208
1301.88669	0.01215
1299.82674	0.01223
1297.76680	0.01230
1295.70685	0.01235
1293.64690	0.01243
1291.58696	0.01256
1289.52701	0.01269
1287.46706	0.01284
1285.40711	0.01306
1283.34717	0.01328
1281.28722	0.01346
1279.22727	0.01360
1277.16732	0.01372
1275.10738	0.01387
1273.04743	0.01404
1270.98748	0.01422
1268.92753	0.01441
1266.86759	0.01463
1264.80764	0.01484
1262.74769	0.01506
1260.68775	0.01527
1258.62780	0.01547
1256.56785	0.01571
1254.50790	0.01599
1252.44796	0.01634
1250.38801	0.01674
1248.32806	0.01709
1246.26811	0.01737
1244.20817	0.01770
1242.14822	0.01808
1240.08827	0.01842
1238.02833	0.01875
1235.96838	0.01919
1233.90843	0.01972
1231.84848	0.02028
1229.78854	0.02088
1227.72859	0.02159
1225.66864	0.02248
1223.60869	0.02357
1221.54875	0.02478
1219.48880	0.02615
1217.42885	0.02768
1215.36891	0.02925
1213.30896	0.03080
1211.24901	0.03235
1209.18906	0.03389
1207.12912	0.03537
1205.06917	0.03678
1203.00922	0.03813
1200.94927	0.03939
1198.88933	0.04053
1196.82938	0.04162
1194.76943	0.04267
1192.70949	0.04365
1190.64954	0.04454
1188.58959	0.04538
1186.52964	0.04624
1184.46970	0.04718
1182.40975	0.04818
1180.34980	0.04926
1178.28985	0.05049
1176.22991	0.05195
1174.16996	0.05365
1172.11001	0.05560
1170.05006	0.05773
1167.99012	0.05996
1165.93017	0.06214
1163.87022	0.06375
1161.81028	0.06409
1159.75033	0.06314
1157.69038	0.06188
1155.63043	0.06132
1153.57049	0.06168
1151.51054	0.06269
1149.45059	0.06402
1147.39064	0.06548
1145.33070	0.06704
1143.27075	0.06871
1141.21080	0.07048
1139.15086	0.07232
1137.09091	0.07423
1135.03096	0.07629
1132.97101	0.07850
1130.91107	0.08082
1128.85112	0.08320
1126.79117	0.08568
1124.73122	0.08824
1122.67128	0.09086
1120.61133	0.09358
1118.55138	0.09639
1116.49144	0.09924
1114.43149	0.10211
1112.37154	0.10505
1110.31159	0.10810
1108.25165	0.11121
1106.19170	0.11444
1104.13175	0.11779
1102.07180	0.12111
1100.01186	0.12443
1097.95191	0.12782
1095.89196	0.13124
1093.83201	0.13460
1091.77207	0.13788
1089.71212	0.14107
1087.65217	0.14399
1085.59223	0.14648
1083.53228	0.14846
1081.47233	0.14992
1079.41238	0.15080
1077.35244	0.15099
1075.29249	0.15043
1073.23254	0.14920
1071.17259	0.14773
1069.11265	0.14656
1067.05270	0.14581
1064.99275	0.14497
1062.93281	0.14379
1060.87286	0.14248
1058.81291	0.14109
1056.75296	0.13944
1054.69302	0.13752
1052.63307	0.13555
1050.57312	0.13366
1048.51317	0.13189
1046.45323	0.13023
1044.39328	0.12870
1042.33333	0.12736
1040.27339	0.12617
1038.21344	0.12497
1036.15349	0.12363
1034.09354	0.12216
1032.03360	0.12065
1029.97365	0.11922
1027.91370	0.11790
1025.85375	0.11648
1023.79381	0.11495
1021.73386	0.11354
1019.67391	0.11227
1017.61396	0.11107
1015.55402	0.10994
1013.49407	0.10887
1011.43412	0.10776
1009.37418	0.10665
1007.31423	0.10558
1005.25428	0.10451
1003.19433	0.10336
1001.13439	0.10209
999.07444	0.10071
997.01449	0.09934
994.95454	0.09804
992.89460	0.09674
990.83465	0.09548
988.77470	0.09425
986.71476	0.09303
984.65481	0.09180
982.59486	0.09051
980.53491	0.08918
978.47497	0.08786
976.41502	0.08657
974.35507	0.08528
972.29512	0.08398
970.23518	0.08270
968.17523	0.08144
966.11528	0.08022
964.05534	0.07907
961.99539	0.07794
959.93544	0.07671
957.87549	0.07549
955.81555	0.07434
953.75560	0.07320
951.69565	0.07212
949.63570	0.07116
947.57576	0.07025
945.51581	0.06930
943.45586	0.06836
941.39591	0.06750
939.33597	0.06672
937.27602	0.06592
935.21607	0.06508
933.15613	0.06426
931.09618	0.06348
929.03623	0.06269
926.97628	0.06191
924.91634	0.06119
922.85639	0.06053
920.79644	0.05992
918.73649	0.05938
916.67655	0.05886
914.61660	0.05826
912.55665	0.05761
910.49671	0.05695
908.43676	0.05621
906.37681	0.05530
904.31686	0.05424
902.25692	0.05319
900.19697	0.05229
898.13702	0.05149
896.07707	0.05064
894.01713	0.04974
891.95718	0.04880
889.89723	0.04788
887.83729	0.04711
885.77734	0.04650
883.71739	0.04582
881.65744	0.04503
879.59750	0.04423
877.53755	0.04340
875.47760	0.04253
873.41765	0.04176
871.35771	0.04107
869.29776	0.04029
867.23781	0.03940
865.17786	0.03851
863.11792	0.03769
861.05797	0.03691
858.99802	0.03609
856.93808	0.03527
854.87813	0.03452
852.81818	0.03384
850.75823	0.03321
848.69829	0.03261
846.63834	0.03200
844.57839	0.03143
842.51844	0.03099
840.45850	0.03080
838.39855	0.03069
836.33860	0.03045
834.27866	0.03016
832.21871	0.02993
830.15876	0.02986
828.09881	0.02994
826.03887	0.03010
823.97892	0.03039
821.91897	0.03087
819.85902	0.03158
817.79908	0.03260
815.73913	0.03413
813.67918	0.03640
811.61924	0.03987
809.55929	0.04510
807.49934	0.05231
805.43939	0.06115
803.37945	0.07061
801.31950	0.07936
799.25955	0.08593
797.19960	0.08908
795.13966	0.08878
793.07971	0.08647
791.01976	0.08394
788.95981	0.08260
786.89987	0.08334
784.83992	0.08639
782.77997	0.09106
780.72003	0.09573
778.66008	0.09830
776.60013	0.09753
774.54018	0.09392
772.48024	0.08905
770.42029	0.08417
768.36034	0.07976
766.30039	0.07588
764.24045	0.07247
762.18050	0.06947
760.12055	0.06681
758.06061	0.06445
756.00066	0.06229
753.94071	0.06024
751.88076	0.05837
749.82082	0.05671
747.76087	0.05523
745.70092	0.05380
743.64097	0.05234
741.58103	0.05099
739.52108	0.04984
737.46113	0.04882
735.40119	0.04787
733.34124	0.04702
731.28129	0.04619
729.22134	0.04536
727.16140	0.04462
725.10145	0.04399
723.04150	0.04343
720.98155	0.04292
718.92161	0.04245
716.86166	0.04207
714.80171	0.04178
712.74176	0.04155
710.68182	0.04147
708.62187	0.04168
706.56192	0.04229
704.50198	0.04340
702.44203	0.04535
700.38208	0.04881
698.32213	0.05391
696.26219	0.05881
694.20224	0.06084
692.14229	0.05939
690.08234	0.05607
688.02240	0.05264
685.96245	0.04976
683.90250	0.04747
681.84256	0.04567
679.78261	0.04417
677.72266	0.04284
675.66271	0.04172
673.60277	0.04084
671.54282	0.04029
669.48287	0.03981
667.42292	0.03870
665.36298	0.03764
663.30303	0.03702
661.24308	0.03647
659.18314	0.03602
657.12319	0.03566
655.06324	0.03529
653.00329	0.03491
650.94335	0.03455
648.88340	0.03427
646.82345	0.03405
644.76350	0.03381
642.70356	0.03357
640.64361	0.03342
638.58366	0.03326
636.52371	0.03298
634.46377	0.03262
632.40382	0.03233
630.34387	0.03213
628.28393	0.03198
626.22398	0.03181
624.16403	0.03158
622.10408	0.03132
620.04414	0.03106
617.98419	0.03092
615.92424	0.03085
613.86429	0.03071
611.80435	0.03063
609.74440	0.03067
607.68445	0.03065
605.62451	0.03058
603.56456	0.03052
601.50461	0.03041
599.44466	0.03036
597.38472	0.03045
595.32477	0.03050
593.26482	0.03045
591.20487	0.03040
589.14493	0.03043
587.08498	0.03059
585.02503	0.03079
582.96509	0.03095
580.90514	0.03109
578.84519	0.03120
576.78524	0.03123
574.72530	0.03125
572.66535	0.03139
570.60540	0.03163
568.54545	0.03199
566.48551	0.03248
564.42556	0.03292
562.36561	0.03316
560.30566	0.03341
558.24572	0.03387
556.18577	0.03460
554.12582	0.03553
552.06588	0.03668
550.00593	0.03820
547.94598	0.04006
545.88603	0.04233
543.82609	0.04525
541.76614	0.04881
539.70619	0.05275
537.64624	0.05679
535.58630	0.06098
533.52635	0.06548
531.46640	0.06998
529.40646	0.07391
527.34651	0.07739
525.28656	0.08070
523.22661	0.08329
521.16667	0.08506
519.10672	0.08635
517.04677	0.08699
514.98682	0.08679
512.92688	0.08598
510.86693	0.08466
508.80698	0.08320
506.74704	0.08252
504.68709	0.08324
502.62714	0.08562
500.56719	0.08931
498.50725	0.09346
496.44730	0.09798
494.38735	0.10271
492.32740	0.10747
490.26746	0.11228
488.20751	0.11693
486.14756	0.12157
484.08761	0.12667
482.02767	0.13224
479.96772	0.13789
477.90777	0.14346
475.84783	0.14902
473.78788	0.15517
471.72793	0.16209
469.66798	0.16835
467.60804	0.17398
465.54809	0.17963
463.48814	0.18449
461.42819	0.18834
459.36825	0.19107
457.30830	0.19164
455.24835	0.18971
453.18841	0.18640
451.12846	0.18246
449.06851	0.17829
447.00856	0.17361
444.94862	0.16862
442.88867	0.16364
440.82872	0.15903
438.76877	0.15504
436.70883	0.15100
434.64888	0.14680
432.58893	0.14299
430.52899	0.13964
428.46904	0.13620
426.40909	0.13219
424.34914	0.12811
422.28920	0.12452
420.22925	0.11991
418.16930	0.11326
416.10935	0.10813
414.04941	0.10373
411.98946	0.09808
409.92951	0.09161
407.86956	0.08583
405.80962	0.08397
403.74967	0.08947
401.68972	0.10303
399.62978	0.12346
