3996.29776	0.01350
3994.23781	0.01356
3992.17786	0.01357
3990.11791	0.01355
3988.05797	0.01352
3985.99802	0.01346
3983.93807	0.01348
3981.87813	0.01361
3979.81818	0.01366
3977.75823	0.01360
3975.69828	0.01359
3973.63834	0.01359
3971.57839	0.01357
3969.51844	0.01356
3967.45849	0.01351
3965.39855	0.01346
3963.33860	0.01343
3961.27865	0.01342
3959.21870	0.01344
3957.15876	0.01342
3955.09881	0.01333
3953.03886	0.01330
3950.97892	0.01341
3948.91897	0.01354
3946.85902	0.01355
3944.79907	0.01353
3942.73913	0.01357
3940.67918	0.01351
3938.61923	0.01339
3936.55928	0.01333
3934.49934	0.01339
3932.43939	0.01350
3930.37944	0.01352
3928.31950	0.01343
3926.25955	0.01341
3924.19960	0.01339
3922.13965	0.01331
3920.07971	0.01332
3918.01976	0.01340
3915.95981	0.01331
3913.89986	0.01322
3911.83992	0.01326
3909.77997	0.01330
3907.72002	0.01338
3905.66008	0.01353
3903.60013	0.01353
3901.54018	0.01341
3899.48023	0.01329
3897.42029	0.01313
3895.36034	0.01313
3893.30039	0.01337
3891.24044	0.01347
3889.18050	0.01325
3887.12055	0.01316
3885.06060	0.01321
3883.00065	0.01323
3880.94071	0.01337
3878.88076	0.01334
3876.82081	0.01325
3874.76087	0.01339
3872.70092	0.01346
3870.64097	0.01339
3868.58102	0.01323
3866.52108	0.01321
3864.46113	0.01342
3862.40118	0.01341
3860.34123	0.01320
3858.28129	0.01316
3856.22134	0.01337
3854.16139	0.01364
3852.10145	0.01332
3850.04150	0.01291
3847.98155	0.01292
3845.92160	0.01310
3843.86166	0.01326
3841.80171	0.01332
3839.74176	0.01336
3837.68181	0.01341
3835.62187	0.01328
3833.56192	0.01313
3831.50197	0.01305
3829.44203	0.01303
3827.38208	0.01316
3825.32213	0.01332
3823.26218	0.01348
3821.20224	0.01358
3819.14229	0.01336
3817.08234	0.01328
3815.02239	0.01322
3812.96245	0.01292
3810.90250	0.01285
3808.84255	0.01315
3806.78260	0.01342
3804.72266	0.01336
3802.66271	0.01342
3800.60276	0.01344
3798.54282	0.01321
3796.48287	0.01314
3794.42292	0.01307
3792.36297	0.01295
3790.30303	0.01294
3788.24308	0.01299
3786.18313	0.01300
3784.12318	0.01293
3782.06324	0.01291
3780.00329	0.01300
3777.94334	0.01293
3775.88340	0.01283
3773.82345	0.01289
3771.76350	0.01301
3769.70355	0.01307
3767.64361	0.01305
3765.58366	0.01309
3763.52371	0.01308
3761.46376	0.01299
3759.40382	0.01292
3757.34387	0.01279
3755.28392	0.01276
3753.22398	0.01306
3751.16403	0.01352
3749.10408	0.01344
3747.04413	0.01325
3744.98419	0.01340
3742.92424	0.01324
3740.86429	0.01286
3738.80434	0.01272
3736.74440	0.01279
3734.68445	0.01303
3732.62450	0.01319
3730.56455	0.01305
3728.50461	0.01289
3726.44466	0.01294
3724.38471	0.01301
3722.32477	0.01295
3720.26482	0.01279
3718.20487	0.01256
3716.14492	0.01243
3714.08498	0.01263
3712.02503	0.01309
3709.96508	0.01319
3707.90513	0.01296
3705.84519	0.01287
3703.78524	0.01303
3701.72529	0.01334
3699.66535	0.01349
3697.60540	0.01348
3695.54545	0.01352
3693.48550	0.01364
3691.42556	0.01386
3689.36561	0.01394
3687.30566	0.01369
3685.24571	0.01348
3683.18577	0.01348
3681.12582	0.01353
3679.06587	0.01356
3677.00593	0.01378
3674.94598	0.01396
3672.88603	0.01384
3670.82608	0.01387
3668.76614	0.01377
3666.70619	0.01350
3664.64624	0.01345
3662.58629	0.01353
3660.52635	0.01366
3658.46640	0.01386
3656.40645	0.01394
3654.34651	0.01379
3652.28656	0.01382
3650.22661	0.01411
3648.16666	0.01408
3646.10672	0.01370
3644.04677	0.01352
3641.98682	0.01356
3639.92687	0.01366
3637.86693	0.01371
3635.80698	0.01370
3633.74703	0.01368
3631.68708	0.01378
3629.62714	0.01397
3627.56719	0.01378
3625.50724	0.01352
3623.44730	0.01363
3621.38735	0.01396
3619.32740	0.01418
3617.26745	0.01398
3615.20751	0.01383
3613.14756	0.01392
3611.08761	0.01400
3609.02766	0.01399
3606.96772	0.01382
3604.90777	0.01366
3602.84782	0.01364
3600.78788	0.01368
3598.72793	0.01375
3596.66798	0.01385
3594.60803	0.01381
3592.54809	0.01366
3590.48814	0.01371
3588.42819	0.01390
3586.36824	0.01373
3584.30830	0.01342
3582.24835	0.01339
3580.18840	0.01346
3578.12846	0.01349
3576.06851	0.01356
3574.00856	0.01366
3571.94861	0.01371
3569.88867	0.01385
3567.82872	0.01401
3565.76877	0.01384
3563.70882	0.01358
3561.64888	0.01357
3559.58893	0.01365
3557.52898	0.01372
3555.46903	0.01381
3553.40909	0.01386
3551.34914	0.01385
3549.28919	0.01393
3547.22925	0.01411
3545.16930	0.01417
3543.10935	0.01410
3541.04940	0.01402
3538.98946	0.01405
3536.92951	0.01416
3534.86956	0.01420
3532.80961	0.01421
3530.74967	0.01429
3528.68972	0.01438
3526.62977	0.01445
3524.56983	0.01450
3522.50988	0.01446
3520.44993	0.01438
3518.38998	0.01438
3516.33004	0.01441
3514.27009	0.01441
3512.21014	0.01442
3510.15019	0.01451
3508.09025	0.01466
3506.03030	0.01475
3503.97035	0.01475
3501.91041	0.01463
3499.85046	0.01460
3497.79051	0.01470
3495.73056	0.01476
3493.67062	0.01471
3491.61067	0.01470
3489.55072	0.01478
3487.49077	0.01483
3485.43083	0.01484
3483.37088	0.01492
3481.31093	0.01502
3479.25098	0.01502
3477.19104	0.01503
3475.13109	0.01505
3473.07114	0.01500
3471.01120	0.01498
3468.95125	0.01502
3466.89130	0.01503
3464.83135	0.01502
3462.77141	0.01507
3460.71146	0.01514
3458.65151	0.01518
3456.59156	0.01517
3454.53162	0.01515
3452.47167	0.01520
3450.41172	0.01530
3448.35178	0.01538
3446.29183	0.01536
3444.23188	0.01529
3442.17193	0.01527
3440.11199	0.01531
3438.05204	0.01535
3435.99209	0.01532
3433.93214	0.01525
3431.87220	0.01523
3429.81225	0.01529
3427.75230	0.01535
3425.69236	0.01536
3423.63241	0.01542
3421.57246	0.01547
3419.51251	0.01546
3417.45257	0.01548
3415.39262	0.01552
3413.33267	0.01554
3411.27272	0.01556
3409.21278	0.01561
3407.15283	0.01567
3405.09288	0.01568
3403.03293	0.01569
3400.97299	0.01573
3398.91304	0.01570
3396.85309	0.01564
3394.79315	0.01560
3392.73320	0.01559
3390.67325	0.01557
3388.61330	0.01556
3386.55336	0.01563
3384.49341	0.01570
3382.43346	0.01568
3380.37351	0.01563
3378.31357	0.01564
3376.25362	0.01567
3374.19367	0.01571
3372.13373	0.01574
3370.07378	0.01573
3368.01383	0.01573
3365.95388	0.01573
3363.89394	0.01568
3361.83399	0.01565
3359.77404	0.01570
3357.71409	0.01572
3355.65415	0.01574
3353.59420	0.01576
3351.53425	0.01570
3349.47431	0.01570
3347.41436	0.01585
3345.35441	0.01594
3343.29446	0.01590
3341.23452	0.01582
3339.17457	0.01581
3337.11462	0.01588
3335.05467	0.01597
3332.99473	0.01600
3330.93478	0.01599
3328.87483	0.01595
3326.81488	0.01591
3324.75494	0.01593
3322.69499	0.01598
3320.63504	0.01602
3318.57510	0.01608
3316.51515	0.01616
3314.45520	0.01615
3312.39525	0.01612
3310.33531	0.01613
3308.27536	0.01610
3306.21541	0.01608
3304.15546	0.01614
3302.09552	0.01619
3300.03557	0.01617
3297.97562	0.01612
3295.91568	0.01606
3293.85573	0.01607
3291.79578	0.01616
3289.73583	0.01618
3287.67589	0.01610
3285.61594	0.01607
3283.55599	0.01606
3281.49604	0.01602
3279.43610	0.01606
3277.37615	0.01611
3275.31620	0.01612
3273.25626	0.01618
3271.19631	0.01627
3269.13636	0.01629
3267.07641	0.01618
3265.01647	0.01611
3262.95652	0.01615
3260.89657	0.01624
3258.83662	0.01628
3256.77668	0.01629
3254.71673	0.01627
3252.65678	0.01619
3250.59683	0.01611
3248.53689	0.01608
3246.47694	0.01609
3244.41699	0.01613
3242.35705	0.01615
3240.29710	0.01615
3238.23715	0.01614
3236.17720	0.01615
3234.11726	0.01617
3232.05731	0.01615
3229.99736	0.01611
3227.93741	0.01606
3225.87747	0.01601
3223.81752	0.01601
3221.75757	0.01605
3219.69763	0.01606
3217.63768	0.01604
3215.57773	0.01599
3213.51778	0.01599
3211.45784	0.01603
3209.39789	0.01600
3207.33794	0.01593
3205.27799	0.01593
3203.21805	0.01593
3201.15810	0.01590
3199.09815	0.01592
3197.03821	0.01599
3194.97826	0.01605
3192.91831	0.01606
3190.85836	0.01603
3188.79842	0.01598
3186.73847	0.01595
3184.67852	0.01596
3182.61857	0.01594
3180.55863	0.01588
3178.49868	0.01585
3176.43873	0.01583
3174.37878	0.01579
3172.31884	0.01576
3170.25889	0.01577
3168.19894	0.01581
3166.13900	0.01581
3164.07905	0.01581
3162.01910	0.01590
3159.95915	0.01593
3157.89921	0.01585
3155.83926	0.01573
3153.77931	0.01567
3151.71936	0.01568
3149.65942	0.01567
3147.59947	0.01566
3145.53952	0.01564
3143.47958	0.01562
3141.41963	0.01566
3139.35968	0.01571
3137.29973	0.01566
3135.23979	0.01558
3133.17984	0.01551
3131.11989	0.01545
3129.05994	0.01549
3127.00000	0.01555
3124.94005	0.01551
3122.88010	0.01546
3120.82016	0.01543
3118.76021	0.01537
3116.70026	0.01535
3114.64031	0.01541
3112.58037	0.01546
3110.52042	0.01546
3108.46047	0.01544
3106.40052	0.01542
3104.34058	0.01540
3102.28063	0.01538
3100.22068	0.01541
3098.16073	0.01544
3096.10079	0.01546
3094.04084	0.01551
3091.98089	0.01555
3089.92095	0.01552
3087.86100	0.01546
3085.80105	0.01540
3083.74110	0.01537
3081.68116	0.01537
3079.62121	0.01538
3077.56126	0.01540
3075.50131	0.01543
3073.44137	0.01543
3071.38142	0.01540
3069.32147	0.01538
3067.26153	0.01539
3065.20158	0.01538
3063.14163	0.01531
3061.08168	0.01530
3059.02174	0.01540
3056.96179	0.01546
3054.90184	0.01538
3052.84189	0.01530
3050.78195	0.01534
3048.72200	0.01538
3046.66205	0.01537
3044.60211	0.01539
3042.54216	0.01537
3040.48221	0.01531
3038.42226	0.01534
3036.36232	0.01543
3034.30237	0.01547
3032.24242	0.01549
3030.18247	0.01561
3028.12253	0.01573
3026.06258	0.01580
3024.00263	0.01585
3021.94268	0.01590
3019.88274	0.01597
3017.82279	0.01610
3015.76284	0.01621
3013.70290	0.01626
3011.64295	0.01633
3009.58300	0.01648
3007.52305	0.01664
3005.46311	0.01682
3003.40316	0.01696
3001.34321	0.01707
2999.28326	0.01719
2997.22332	0.01730
2995.16337	0.01740
2993.10342	0.01760
2991.04348	0.01789
2988.98353	0.01807
2986.92358	0.01809
2984.86363	0.01803
2982.80369	0.01792
2980.74374	0.01786
2978.68379	0.01788
2976.62384	0.01798
2974.56390	0.01804
2972.50395	0.01804
2970.44400	0.01805
2968.38406	0.01805
2966.32411	0.01798
2964.26416	0.01787
2962.20421	0.01774
2960.14427	0.01761
2958.08432	0.01751
2956.02437	0.01741
2953.96442	0.01731
2951.90448	0.01726
2949.84453	0.01722
2947.78458	0.01718
2945.72463	0.01718
2943.66469	0.01722
2941.60474	0.01721
2939.54479	0.01720
2937.48485	0.01728
2935.42490	0.01735
2933.36495	0.01735
2931.30500	0.01744
2929.24506	0.01759
2927.18511	0.01771
2925.12516	0.01780
2923.06521	0.01790
2921.00527	0.01799
2918.94532	0.01799
2916.88537	0.01785
2914.82543	0.01768
2912.76548	0.01759
2910.70553	0.01757
2908.64558	0.01758
2906.58564	0.01763
2904.52569	0.01769
2902.46574	0.01775
2900.40579	0.01771
2898.34585	0.01749
2896.28590	0.01727
2894.22595	0.01713
2892.16601	0.01705
2890.10606	0.01701
2888.04611	0.01697
2885.98616	0.01694
2883.92622	0.01690
2881.86627	0.01680
2879.80632	0.01667
2877.74637	0.01654
2875.68643	0.01643
2873.62648	0.01634
2871.56653	0.01624
2869.50658	0.01613
2867.44664	0.01604
2865.38669	0.01599
2863.32674	0.01597
2861.26680	0.01589
2859.20685	0.01572
2857.14690	0.01560
2855.08695	0.01559
2853.02701	0.01562
2850.96706	0.01564
2848.90711	0.01560
2846.84716	0.01551
2844.78722	0.01535
2842.72727	0.01519
2840.66732	0.01506
2838.60738	0.01496
2836.54743	0.01483
2834.48748	0.01466
2832.42753	0.01453
2830.36759	0.01450
2828.30764	0.01451
2826.24769	0.01447
2824.18774	0.01440
2822.12780	0.01436
2820.06785	0.01429
2818.00790	0.01424
2815.94796	0.01422
2813.88801	0.01421
2811.82806	0.01416
2809.76811	0.01411
2807.70817	0.01406
2805.64822	0.01400
2803.58827	0.01399
2801.52832	0.01403
2799.46838	0.01404
2797.40843	0.01401
2795.34848	0.01395
2793.28853	0.01386
2791.22859	0.01379
2789.16864	0.01376
2787.10869	0.01379
2785.04875	0.01379
2782.98880	0.01372
2780.92885	0.01366
2778.86890	0.01362
2776.80896	0.01359
2774.74901	0.01358
2772.68906	0.01358
2770.62911	0.01357
2768.56917	0.01352
2766.50922	0.01345
2764.44927	0.01337
2762.38933	0.01335
2760.32938	0.01338
2758.26943	0.01336
2756.20948	0.01332
2754.14954	0.01333
2752.08959	0.01336
2750.02964	0.01336
2747.96969	0.01333
2745.90975	0.01331
2743.84980	0.01327
2741.78985	0.01320
2739.72991	0.01320
2737.66996	0.01323
2735.61001	0.01321
2733.55006	0.01315
2731.49012	0.01310
2729.43017	0.01307
2727.37022	0.01302
2725.31027	0.01300
2723.25033	0.01298
2721.19038	0.01298
2719.13043	0.01299
2717.07048	0.01298
2715.01054	0.01293
2712.95059	0.01291
2710.89064	0.01293
2708.83070	0.01293
2706.77075	0.01288
2704.71080	0.01283
2702.65085	0.01280
2700.59091	0.01274
2698.53096	0.01270
2696.47101	0.01270
2694.41106	0.01272
2692.35112	0.01267
2690.29117	0.01263
2688.23122	0.01264
2686.17128	0.01264
2684.11133	0.01259
2682.05138	0.01257
2679.99143	0.01257
2677.93149	0.01258
2675.87154	0.01259
2673.81159	0.01260
2671.75164	0.01262
2669.69170	0.01266
2667.63175	0.01277
2665.57180	0.01296
2663.51186	0.01315
2661.45191	0.01330
2659.39196	0.01341
2657.33201	0.01349
2655.27207	0.01353
2653.21212	0.01355
2651.15217	0.01358
2649.09222	0.01360
2647.03228	0.01357
2644.97233	0.01351
2642.91238	0.01346
2640.85243	0.01345
2638.79249	0.01341
2636.73254	0.01332
2634.67259	0.01324
2632.61265	0.01321
2630.55270	0.01315
2628.49275	0.01307
2626.43280	0.01301
2624.37286	0.01296
2622.31291	0.01290
2620.25296	0.01283
2618.19301	0.01279
2616.13307	0.01279
2614.07312	0.01275
2612.01317	0.01269
2609.95323	0.01260
2607.89328	0.01250
2605.83333	0.01245
2603.77338	0.01245
2601.71344	0.01243
2599.65349	0.01240
2597.59354	0.01230
2595.53359	0.01218
2593.47365	0.01211
2591.41370	0.01206
2589.35375	0.01202
2587.29381	0.01199
2585.23386	0.01195
2583.17391	0.01195
2581.11396	0.01202
2579.05402	0.01202
2576.99407	0.01187
2574.93412	0.01172
2572.87417	0.01165
2570.81423	0.01161
2568.75428	0.01154
2566.69433	0.01147
2564.63438	0.01141
2562.57444	0.01139
2560.51449	0.01143
2558.45454	0.01141
2556.39460	0.01131
2554.33465	0.01121
2552.27470	0.01120
2550.21475	0.01119
2548.15481	0.01114
2546.09486	0.01109
2544.03491	0.01104
2541.97496	0.01099
2539.91502	0.01106
2537.85507	0.01118
2535.79512	0.01117
2533.73518	0.01105
2531.67523	0.01091
2529.61528	0.01081
2527.55533	0.01078
2525.49539	0.01081
2523.43544	0.01086
2521.37549	0.01089
2519.31554	0.01088
2517.25560	0.01087
2515.19565	0.01085
2513.13570	0.01084
2511.07576	0.01079
2509.01581	0.01073
2506.95586	0.01078
2504.89591	0.01082
2502.83597	0.01075
2500.77602	0.01067
2498.71607	0.01070
2496.65612	0.01075
2494.59618	0.01071
2492.53623	0.01062
2490.47628	0.01059
2488.41633	0.01061
2486.35639	0.01063
2484.29644	0.01057
2482.23649	0.01050
2480.17655	0.01049
2478.11660	0.01051
2476.05665	0.01049
2473.99670	0.01042
2471.93676	0.01036
2469.87681	0.01039
2467.81686	0.01048
2465.75691	0.01057
2463.69697	0.01060
2461.63702	0.01063
2459.57707	0.01074
2457.51713	0.01085
2455.45718	0.01084
2453.39723	0.01074
2451.33728	0.01070
2449.27734	0.01066
2447.21739	0.01054
2445.15744	0.01042
2443.09749	0.01033
2441.03755	0.01027
2438.97760	0.01029
2436.91765	0.01024
2434.85771	0.01017
2432.79776	0.01024
2430.73781	0.01031
2428.67786	0.01023
2426.61792	0.01009
2424.55797	0.01001
2422.49802	0.00998
2420.43807	0.00997
2418.37813	0.00998
2416.31818	0.00991
2414.25823	0.00982
2412.19828	0.00981
2410.13834	0.00975
2408.07839	0.00956
2406.01844	0.00943
2403.95850	0.00942
2401.89855	0.00945
2399.83860	0.00945
2397.77865	0.00936
2395.71871	0.00926
2393.65876	0.00926
2391.59881	0.00929
2389.53886	0.00927
2387.47892	0.00925
2385.41897	0.00930
2383.35902	0.00941
2381.29908	0.00956
2379.23913	0.00974
2377.17918	0.00985
2375.11923	0.00990
2373.05929	0.00994
2370.99934	0.01009
2368.93939	0.01034
2366.87944	0.01071
2364.81950	0.01120
2362.75955	0.01158
2360.69960	0.01170
2358.63966	0.01171
2356.57971	0.01164
2354.51976	0.01149
2352.45981	0.01133
2350.39987	0.01117
2348.33992	0.01113
2346.27997	0.01128
2344.22002	0.01152
2342.16008	0.01157
2340.10013	0.01144
2338.04018	0.01139
2335.98023	0.01145
2333.92029	0.01152
2331.86034	0.01165
2329.80039	0.01205
2327.74045	0.01302
2325.68050	0.01403
2323.62055	0.01409
2321.56060	0.01342
2319.50066	0.01281
2317.44071	0.01242
2315.38076	0.01217
2313.32081	0.01202
2311.26087	0.01187
2309.20092	0.01172
2307.14097	0.01164
2305.08103	0.01162
2303.02108	0.01152
2300.96113	0.01140
2298.90118	0.01142
2296.84124	0.01162
2294.78129	0.01190
2292.72134	0.01216
2290.66139	0.01236
2288.60145	0.01247
2286.54150	0.01241
2284.48155	0.01208
2282.42161	0.01159
2280.36166	0.01122
2278.30171	0.01102
2276.24176	0.01088
2274.18182	0.01081
2272.12187	0.01080
2270.06192	0.01063
2268.00197	0.01034
2265.94203	0.01009
2263.88208	0.00998
2261.82213	0.01011
2259.76218	0.01034
2257.70224	0.01022
2255.64229	0.00967
2253.58234	0.00920
2251.52240	0.00908
2249.46245	0.00924
2247.40250	0.00947
2245.34255	0.00959
2243.28261	0.00951
2241.22266	0.00941
2239.16271	0.00946
2237.10276	0.00944
2235.04282	0.00922
2232.98287	0.00910
2230.92292	0.00913
2228.86298	0.00916
2226.80303	0.00918
2224.74308	0.00926
2222.68313	0.00930
2220.62319	0.00901
2218.56324	0.00849
2216.50329	0.00816
2214.44334	0.00819
2212.38340	0.00846
2210.32345	0.00875
2208.26350	0.00889
2206.20356	0.00883
2204.14361	0.00874
2202.08366	0.00863
2200.02371	0.00844
2197.96377	0.00832
2195.90382	0.00842
2193.84387	0.00874
2191.78392	0.00907
2189.72398	0.00906
2187.66403	0.00880
2185.60408	0.00846
2183.54413	0.00801
2181.48419	0.00786
2179.42424	0.00795
2177.36429	0.00761
2175.30435	0.00724
2173.24440	0.00766
2171.18445	0.00841
2169.12450	0.00897
2167.06456	0.00945
2165.00461	0.00996
2162.94466	0.00970
2160.88471	0.00678
2158.82477	0.00260
2156.76482	0.00123
2154.70487	0.00219
2152.64493	0.00323
2150.58498	0.00378
2148.52503	0.00383
2146.46508	0.00370
2144.40514	0.00386
2142.34519	0.00422
2140.28524	0.00442
2138.22529	0.00415
2136.16535	0.00337
2134.10540	0.00280
2132.04545	0.00319
2129.98551	0.00419
2127.92556	0.00508
2125.86561	0.00571
2123.80566	0.00614
2121.74572	0.00647
2119.68577	0.00696
2117.62582	0.00763
2115.56587	0.00803
2113.50593	0.00798
2111.44598	0.00791
2109.38603	0.00796
2107.32608	0.00795
2105.26614	0.00792
2103.20619	0.00795
2101.14624	0.00795
2099.08630	0.00780
2097.02635	0.00738
2094.96640	0.00688
2092.90645	0.00682
2090.84651	0.00731
2088.78656	0.00785
2086.72661	0.00813
2084.66666	0.00831
2082.60672	0.00850
2080.54677	0.00858
2078.48682	0.00856
2076.42688	0.00854
2074.36693	0.00850
2072.30698	0.00840
2070.24703	0.00822
2068.18709	0.00797
2066.12714	0.00779
2064.06719	0.00774
2062.00724	0.00789
2059.94730	0.00809
2057.88735	0.00816
2055.82740	0.00830
2053.76746	0.00908
2051.70751	0.01003
2049.64756	0.00983
2047.58761	0.00891
2045.52767	0.00834
2043.46772	0.00812
2041.40777	0.00816
2039.34782	0.00824
2037.28788	0.00807
2035.22793	0.00774
2033.16798	0.00757
2031.10803	0.00729
2029.04809	0.00681
2026.98814	0.00662
2024.92819	0.00689
2022.86825	0.00714
2020.80830	0.00694
2018.74835	0.00665
2016.68840	0.00643
2014.62846	0.00609
2012.56851	0.00584
2010.50856	0.00583
2008.44861	0.00559
2006.38867	0.00513
2004.32872	0.00514
2002.26877	0.00578
2000.20883	0.00656
1998.14888	0.00685
1996.08893	0.00687
1994.02898	0.00719
1991.96904	0.00771
1989.90909	0.00809
1987.84914	0.00831
1985.78919	0.00877
1983.72925	0.00984
1981.66930	0.01059
1979.60935	0.00935
1977.54941	0.00672
1975.48946	0.00523
1973.42951	0.00508
1971.36956	0.00508
1969.30962	0.00516
1967.24967	0.00543
1965.18972	0.00558
1963.12977	0.00550
1961.06983	0.00512
1959.00988	0.00479
1956.94993	0.00493
1954.88998	0.00533
1952.83004	0.00567
1950.77009	0.00577
1948.71014	0.00564
1946.65020	0.00550
1944.59025	0.00556
1942.53030	0.00581
1940.47035	0.00608
1938.41041	0.00633
1936.35046	0.00641
1934.29051	0.00623
1932.23056	0.00608
1930.17062	0.00609
1928.11067	0.00613
1926.05072	0.00618
1923.99078	0.00634
1921.93083	0.00655
1919.87088	0.00668
1917.81093	0.00674
1915.75099	0.00688
1913.69104	0.00707
1911.63109	0.00714
1909.57114	0.00707
1907.51120	0.00697
1905.45125	0.00706
1903.39130	0.00734
1901.33136	0.00748
1899.27141	0.00741
1897.21146	0.00729
1895.15151	0.00730
1893.09157	0.00740
1891.03162	0.00749
1888.97167	0.00754
1886.91172	0.00759
1884.85178	0.00768
1882.79183	0.00774
1880.73188	0.00776
1878.67193	0.00784
1876.61199	0.00786
1874.55204	0.00778
1872.49209	0.00775
1870.43215	0.00785
1868.37220	0.00786
1866.31225	0.00775
1864.25230	0.00770
1862.19236	0.00773
1860.13241	0.00775
1858.07246	0.00774
1856.01251	0.00767
1853.95257	0.00754
1851.89262	0.00743
1849.83267	0.00738
1847.77273	0.00738
1845.71278	0.00739
1843.65283	0.00729
1841.59288	0.00713
1839.53294	0.00711
1837.47299	0.00719
1835.41304	0.00721
1833.35309	0.00722
1831.29315	0.00728
1829.23320	0.00728
1827.17325	0.00719
1825.11331	0.00718
1823.05336	0.00718
1820.99341	0.00702
1818.93346	0.00673
1816.87352	0.00661
1814.81357	0.00681
1812.75362	0.00713
1810.69367	0.00738
1808.63373	0.00749
1806.57378	0.00751
1804.51383	0.00757
1802.45388	0.00770
1800.39394	0.00780
1798.33399	0.00781
1796.27404	0.00783
1794.21410	0.00789
1792.15415	0.00789
1790.09420	0.00781
1788.03425	0.00781
1785.97431	0.00786
1783.91436	0.00784
1781.85441	0.00779
1779.79446	0.00777
1777.73452	0.00778
1775.67457	0.00786
1773.61462	0.00799
1771.55468	0.00801
1769.49473	0.00795
1767.43478	0.00786
1765.37483	0.00781
1763.31489	0.00788
1761.25494	0.00798
1759.19499	0.00807
1757.13504	0.00811
1755.07510	0.00805
1753.01515	0.00807
1750.95520	0.00828
1748.89526	0.00848
1746.83531	0.00849
1744.77536	0.00846
1742.71541	0.00849
1740.65547	0.00855
1738.59552	0.00863
1736.53557	0.00878
1734.47562	0.00892
1732.41568	0.00883
1730.35573	0.00876
1728.29578	0.00881
1726.23583	0.00887
1724.17589	0.00895
1722.11594	0.00909
1720.05599	0.00933
1717.99605	0.00960
1715.93610	0.00967
1713.87615	0.00960
1711.81620	0.00961
1709.75626	0.00972
1707.69631	0.00993
1705.63636	0.01014
1703.57641	0.01029
1701.51647	0.01050
1699.45652	0.01064
1697.39657	0.01060
1695.33663	0.01050
1693.27668	0.01050
1691.21673	0.01072
1689.15678	0.01102
1687.09684	0.01129
1685.03689	0.01151
1682.97694	0.01143
1680.91699	0.01138
1678.85705	0.01153
1676.79710	0.01173
1674.73715	0.01188
1672.67721	0.01201
1670.61726	0.01218
1668.55731	0.01218
1666.49736	0.01218
1664.43742	0.01237
1662.37747	0.01250
1660.31752	0.01248
1658.25757	0.01260
1656.19763	0.01294
1654.13768	0.01331
1652.07773	0.01320
1650.01778	0.01321
1647.95784	0.01346
1645.89789	0.01340
1643.83794	0.01326
1641.77800	0.01337
1639.71805	0.01362
1637.65810	0.01393
1635.59815	0.01403
1633.53821	0.01383
1631.47826	0.01386
1629.41831	0.01405
1627.35836	0.01417
1625.29842	0.01425
1623.23847	0.01427
1621.17852	0.01425
1619.11858	0.01441
1617.05863	0.01462
1614.99868	0.01459
1612.93873	0.01455
1610.87879	0.01457
1608.81884	0.01456
1606.75889	0.01454
1604.69894	0.01457
1602.63900	0.01458
1600.57905	0.01454
1598.51910	0.01454
1596.45916	0.01457
1594.39921	0.01456
1592.33926	0.01448
1590.27931	0.01437
1588.21937	0.01431
1586.15942	0.01431
1584.09947	0.01432
1582.03952	0.01429
1579.97958	0.01429
1577.91963	0.01433
1575.85968	0.01424
1573.79973	0.01413
1571.73979	0.01420
1569.67984	0.01412
1567.61989	0.01393
1565.55995	0.01393
1563.50000	0.01403
1561.44005	0.01419
1559.38010	0.01419
1557.32016	0.01372
1555.26021	0.01356
1553.20026	0.01353
1551.14031	0.01345
1549.08037	0.01338
1547.02042	0.01342
1544.96047	0.01359
1542.90053	0.01369
1540.84058	0.01351
1538.78063	0.01301
1536.72068	0.01287
1534.66074	0.01298
1532.60079	0.01291
1530.54084	0.01279
1528.48089	0.01283
1526.42095	0.01288
1524.36100	0.01292
1522.30105	0.01292
1520.24111	0.01268
1518.18116	0.01243
1516.12121	0.01229
1514.06126	0.01222
1512.00132	0.01225
1509.94137	0.01242
1507.88142	0.01258
1505.82147	0.01214
1503.76153	0.01173
1501.70158	0.01170
1499.64163	0.01179
1497.58168	0.01180
1495.52174	0.01165
1493.46179	0.01160
1491.40184	0.01172
1489.34190	0.01180
1487.28195	0.01172
1485.22200	0.01164
1483.16205	0.01165
1481.10211	0.01172
1479.04216	0.01186
1476.98221	0.01209
1474.92226	0.01238
1472.86232	0.01256
1470.80237	0.01248
1468.74242	0.01245
1466.68248	0.01256
1464.62253	0.01262
1462.56258	0.01268
1460.50263	0.01293
1458.44269	0.01331
1456.38274	0.01332
1454.32279	0.01313
1452.26284	0.01315
1450.20290	0.01324
1448.14295	0.01327
1446.08300	0.01319
1444.02306	0.01316
1441.96311	0.01320
1439.90316	0.01329
1437.84321	0.01341
1435.78327	0.01341
1433.72332	0.01342
1431.66337	0.01351
1429.60342	0.01352
1427.54348	0.01350
1425.48353	0.01359
1423.42358	0.01370
1421.36363	0.01382
1419.30369	0.01397
1417.24374	0.01400
1415.18379	0.01403
1413.12385	0.01415
1411.06390	0.01426
1409.00395	0.01433
1406.94400	0.01438
1404.88406	0.01431
1402.82411	0.01416
1400.76416	0.01409
1398.70421	0.01408
1396.64427	0.01413
1394.58432	0.01419
1392.52437	0.01406
1390.46443	0.01386
1388.40448	0.01379
1386.34453	0.01378
1384.28458	0.01378
1382.22464	0.01376
1380.16469	0.01372
1378.10474	0.01371
1376.04479	0.01371
1373.98485	0.01359
1371.92490	0.01337
1369.86495	0.01317
1367.80501	0.01302
1365.74506	0.01296
1363.68511	0.01292
1361.62516	0.01277
1359.56522	0.01262
1357.50527	0.01253
1355.44532	0.01245
1353.38537	0.01236
1351.32543	0.01228
1349.26548	0.01219
1347.20553	0.01210
1345.14558	0.01204
1343.08564	0.01206
1341.02569	0.01212
1338.96574	0.01212
1336.90580	0.01205
1334.84585	0.01200
1332.78590	0.01196
1330.72595	0.01191
1328.66601	0.01187
1326.60606	0.01183
1324.54611	0.01184
1322.48616	0.01188
1320.42622	0.01193
1318.36627	0.01196
1316.30632	0.01199
1314.24638	0.01203
1312.18643	0.01206
1310.12648	0.01203
1308.06653	0.01200
1306.00659	0.01202
1303.94664	0.01210
1301.88669	0.01219
1299.82674	0.01225
1297.76680	0.01228
1295.70685	0.01235
1293.64690	0.01246
1291.58696	0.01258
1289.52701	0.01270
1287.46706	0.01286
1285.40711	0.01307
1283.34717	0.01328
1281.28722	0.01344
1279.22727	0.01357
1277.16732	0.01373
1275.10738	0.01389
1273.04743	0.01404
1270.98748	0.01419
1268.92753	0.01437
1266.86759	0.01456
1264.80764	0.01477
1262.74769	0.01501
1260.68775	0.01524
1258.62780	0.01543
1256.56785	0.01566
1254.50790	0.01596
1252.44796	0.01633
1250.38801	0.01671
1248.32806	0.01704
1246.26811	0.01733
1244.20817	0.01765
1242.14822	0.01801
1240.08827	0.01831
1238.02833	0.01866
1235.96838	0.01917
1233.90843	0.01975
1231.84848	0.02034
1229.78854	0.02097
1227.72859	0.02161
1225.66864	0.02238
1223.60869	0.02342
1221.54875	0.02467
1219.48880	0.02609
1217.42885	0.02760
1215.36891	0.02916
1213.30896	0.03075
1211.24901	0.03238
1209.18906	0.03397
1207.12912	0.03544
1205.06917	0.03680
1203.00922	0.03810
1200.94927	0.03935
1198.88933	0.04052
1196.82938	0.04163
1194.76943	0.04267
1192.70949	0.04366
1190.64954	0.04457
1188.58959	0.04541
1186.52964	0.04628
1184.46970	0.04724
1182.40975	0.04824
1180.34980	0.04930
1178.28985	0.05052
1176.22991	0.05194
1174.16996	0.05362
1172.11001	0.05555
1170.05006	0.05767
1167.99012	0.05993
1165.93017	0.06209
1163.87022	0.06364
1161.81028	0.06396
1159.75033	0.06305
1157.69038	0.06186
1155.63043	0.06130
1153.57049	0.06164
1151.51054	0.06266
1149.45059	0.06400
1147.39064	0.06549
1145.33070	0.06704
1143.27075	0.06866
1141.21080	0.07039
1139.15086	0.07223
1137.09091	0.07417
1135.03096	0.07625
1132.97101	0.07846
1130.91107	0.08078
1128.85112	0.08319
1126.79117	0.08567
1124.73122	0.08819
1122.67128	0.09078
1120.61133	0.09349
1118.55138	0.09630
1116.49144	0.09910
1114.43149	0.10195
1112.37154	0.10494
1110.31159	0.10801
1108.25165	0.11109
1106.19170	0.11429
1104.13175	0.11763
1102.07180	0.12096
1100.01186	0.12428
1097.95191	0.12763
1095.89196	0.13098
1093.83201	0.13432
1091.77207	0.13765
1089.71212	0.14088
1087.65217	0.14385
1085.59223	0.14633
1083.53228	0.14824
1081.47233	0.14962
1079.41238	0.15048
1077.35244	0.15066
1075.29249	0.15010
1073.23254	0.14888
1071.17259	0.14737
1069.11265	0.14617
1067.05270	0.14549
1064.99275	0.14473
1062.93281	0.14356
1060.87286	0.14228
1058.81291	0.14095
1056.75296	0.13929
1054.69302	0.13727
1052.63307	0.13523
1050.57312	0.13336
1048.51317	0.13164
1046.45323	0.12995
1044.39328	0.12836
1042.33333	0.12701
1040.27339	0.12584
1038.21344	0.12465
1036.15349	0.12331
1034.09354	0.12187
1032.03360	0.12038
1029.97365	0.11896
1027.91370	0.11763
1025.85375	0.11617
1023.79381	0.11464
1021.73386	0.11325
1019.67391	0.11199
1017.61396	0.11083
1015.55402	0.10975
1013.49407	0.10866
1011.43412	0.10758
1009.37418	0.10649
1007.31423	0.10530
1005.25428	0.10410
1003.19433	0.10291
1001.13439	0.10167
999.07444	0.10036
997.01449	0.09908
994.95454	0.09784
992.89460	0.09657
990.83465	0.09531
988.77470	0.09406
986.71476	0.09275
984.65481	0.09147
982.59486	0.09022
980.53491	0.08897
978.47497	0.08771
976.41502	0.08646
974.35507	0.08516
972.29512	0.08379
970.23518	0.08248
968.17523	0.08124
966.11528	0.08005
964.05534	0.07887
961.99539	0.07768
959.93544	0.07647
957.87549	0.07533
955.81555	0.07426
953.75560	0.07316
951.69565	0.07210
949.63570	0.07115
947.57576	0.07016
945.51581	0.06909
943.45586	0.06811
941.39591	0.06732
939.33597	0.06659
937.27602	0.06581
935.21607	0.06499
933.15613	0.06415
931.09618	0.06336
929.03623	0.06263
926.97628	0.06192
924.91634	0.06122
922.85639	0.06052
920.79644	0.05989
918.73649	0.05932
916.67655	0.05877
914.61660	0.05818
912.55665	0.05754
910.49671	0.05683
908.43676	0.05602
906.37681	0.05512
904.31686	0.05412
902.25692	0.05311
900.19697	0.05220
898.13702	0.05136
896.07707	0.05050
894.01713	0.04959
891.95718	0.04867
889.89723	0.04780
887.83729	0.04704
885.77734	0.04630
883.71739	0.04555
881.65744	0.04481
879.59750	0.04408
877.53755	0.04328
875.47760	0.04246
873.41765	0.04169
871.35771	0.04090
869.29776	0.04002
867.23781	0.03914
865.17786	0.03829
863.11792	0.03748
861.05797	0.03671
858.99802	0.03592
856.93808	0.03515
854.87813	0.03450
852.81818	0.03393
850.75823	0.03333
848.69829	0.03263
846.63834	0.03186
844.57839	0.03125
842.51844	0.03091
840.45850	0.03075
838.39855	0.03056
836.33860	0.03027
834.27866	0.03000
832.21871	0.02989
830.15876	0.02991
828.09881	0.03000
826.03887	0.03013
823.97892	0.03038
821.91897	0.03081
819.85902	0.03150
817.79908	0.03254
815.73913	0.03406
813.67918	0.03635
811.61924	0.03986
809.55929	0.04497
807.49934	0.05204
805.43939	0.06086
803.37945	0.07036
801.31950	0.07915
799.25955	0.08580
797.19960	0.08901
795.13966	0.08873
793.07971	0.08637
791.01976	0.08375
788.95981	0.08236
786.89987	0.08311
784.83992	0.08615
782.77997	0.09084
780.72003	0.09553
778.66008	0.09809
776.60013	0.09731
774.54018	0.09368
772.48024	0.08876
770.42029	0.08390
768.36034	0.07958
766.30039	0.07574
764.24045	0.07235
762.18050	0.06946
760.12055	0.06694
758.06061	0.06453
756.00066	0.06223
753.94071	0.06019
751.88076	0.05836
749.82082	0.05661
747.76087	0.05499
745.70092	0.05354
743.64097	0.05224
741.58103	0.05105
739.52108	0.04992
737.46113	0.04881
735.40119	0.04776
733.34124	0.04686
731.28129	0.04605
729.22134	0.04528
727.16140	0.04458
725.10145	0.04396
723.04150	0.04335
720.98155	0.04282
718.92161	0.04238
716.86166	0.04196
714.80171	0.04157
712.74176	0.04134
710.68182	0.04138
708.62187	0.04165
706.56192	0.04222
704.50198	0.04329
702.44203	0.04523
700.38208	0.04876
698.32213	0.05396
696.26219	0.05890
694.20224	0.06084
692.14229	0.05924
690.08234	0.05592
688.02240	0.05259
685.96245	0.04974
683.90250	0.04732
681.84256	0.04536
679.78261	0.04385
677.72266	0.04261
675.66271	0.04153
673.60277	0.04066
671.54282	0.04015
669.48287	0.03976
667.42292	0.03873
665.36298	0.03765
663.30303	0.03704
661.24308	0.03649
659.18314	0.03600
657.12319	0.03565
655.06324	0.03534
653.00329	0.03498
650.94335	0.03463
648.88340	0.03430
646.82345	0.03394
644.76350	0.03362
642.70356	0.03342
640.64361	0.03327
638.58366	0.03304
636.52371	0.03273
634.46377	0.03247
632.40382	0.03224
630.34387	0.03200
628.28393	0.03180
626.22398	0.03162
624.16403	0.03150
622.10408	0.03143
620.04414	0.03134
617.98419	0.03117
615.92424	0.03096
613.86429	0.03079
611.80435	0.03060
609.74440	0.03040
607.68445	0.03036
605.62451	0.03050
603.56456	0.03061
601.50461	0.03054
599.44466	0.03043
597.38472	0.03037
595.32477	0.03025
593.26482	0.03013
591.20487	0.03019
589.14493	0.03051
587.08498	0.03089
585.02503	0.03095
582.96509	0.03083
580.90514	0.03086
578.84519	0.03106
576.78524	0.03124
574.72530	0.03133
572.66535	0.03148
570.60540	0.03173
568.54545	0.03198
566.48551	0.03233
564.42556	0.03281
562.36561	0.03319
560.30566	0.03343
558.24572	0.03382
556.18577	0.03454
554.12582	0.03545
552.06588	0.03653
550.00593	0.03788
547.94598	0.03963
545.88603	0.04195
543.82609	0.04481
541.76614	0.04824
539.70619	0.05221
537.64624	0.05643
535.58630	0.06080
533.52635	0.06537
531.46640	0.06980
529.40646	0.07365
527.34651	0.07716
525.28656	0.08055
523.22661	0.08319
521.16667	0.08504
519.10672	0.08643
517.04677	0.08705
514.98682	0.08674
512.92688	0.08576
510.86693	0.08430
508.80698	0.08279
506.74704	0.08209
504.68709	0.08287
502.62714	0.08532
500.56719	0.08911
498.50725	0.09346
496.44730	0.09791
494.38735	0.10232
492.32740	0.10686
490.26746	0.11154
488.20751	0.11631
486.14756	0.12124
484.08761	0.12645
482.02767	0.13200
479.96772	0.13762
477.90777	0.14333
475.84783	0.14920
473.78788	0.15529
471.72793	0.16193
469.66798	0.16835
467.60804	0.17426
465.54809	0.17967
463.48814	0.18394
461.42819	0.18730
459.36825	0.18978
457.30830	0.19055
455.24835	0.18937
453.18841	0.18668
451.12846	0.18278
449.06851	0.17832
447.00856	0.17334
444.94862	0.16819
442.88867	0.16315
440.82872	0.15845
438.76877	0.15452
436.70883	0.15066
434.64888	0.14642
432.58893	0.14230
430.52899	0.13852
428.46904	0.13482
426.40909	0.13082
424.34914	0.12667
422.28920	0.12294
420.22925	0.11873
418.16930	0.11291
416.10935	0.10814
414.04941	0.10379
411.98946	0.09820
409.92951	0.09164
407.86956	0.08575
405.80962	0.08420
403.74967	0.09012
401.68972	0.10338
399.62978	0.12262
