3996.29776	0.04768
3994.23781	0.04768
3992.17786	0.04771
3990.11791	0.04771
3988.05797	0.04766
3985.99802	0.04756
3983.93807	0.04747
3981.87813	0.04751
3979.81818	0.04754
3977.75823	0.04752
3975.69828	0.04753
3973.63834	0.04752
3971.57839	0.04750
3969.51844	0.04751
3967.45849	0.04746
3965.39855	0.04734
3963.33860	0.04729
3961.27865	0.04743
3959.21870	0.04756
3957.15876	0.04755
3955.09881	0.04739
3953.03886	0.04709
3950.97892	0.04696
3948.91897	0.04725
3946.85902	0.04745
3944.79907	0.04730
3942.73913	0.04744
3940.67918	0.04759
3938.61923	0.04731
3936.55928	0.04696
3934.49934	0.04679
3932.43939	0.04702
3930.37944	0.04733
3928.31950	0.04710
3926.25955	0.04685
3924.19960	0.04707
3922.13965	0.04708
3920.07971	0.04679
3918.01976	0.04700
3915.95981	0.04744
3913.89986	0.04733
3911.83992	0.04695
3909.77997	0.04660
3907.72002	0.04609
3905.66008	0.04587
3903.60013	0.04641
3901.54018	0.04708
3899.48023	0.04761
3897.42029	0.04755
3895.36034	0.04667
3893.30039	0.04618
3891.24044	0.04689
3889.18050	0.04697
3887.12055	0.04632
3885.06060	0.04651
3883.00065	0.04662
3880.94071	0.04677
3878.88076	0.04715
3876.82081	0.04657
3874.76087	0.04613
3872.70092	0.04618
3870.64097	0.04651
3868.58102	0.04694
3866.52108	0.04658
3864.46113	0.04666
3862.40118	0.04725
3860.34123	0.04690
3858.28129	0.04571
3856.22134	0.04451
3854.16139	0.04550
3852.10145	0.04845
3850.04150	0.04838
3847.98155	0.04688
3845.92160	0.04583
3843.86166	0.04555
3841.80171	0.04558
3839.74176	0.04581
3837.68181	0.04672
3835.62187	0.04715
3833.56192	0.04681
3831.50197	0.04658
3829.44203	0.04631
3827.38208	0.04608
3825.32213	0.04579
3823.26218	0.04526
3821.20224	0.04594
3819.14229	0.04666
3817.08234	0.04659
3815.02239	0.04719
3812.96245	0.04690
3810.90250	0.04574
3808.84255	0.04525
3806.78260	0.04588
3804.72266	0.04590
3802.66271	0.04566
3800.60276	0.04655
3798.54282	0.04663
3796.48287	0.04641
3794.42292	0.04637
3792.36297	0.04593
3790.30303	0.04561
3788.24308	0.04548
3786.18313	0.04541
3784.12318	0.04541
3782.06324	0.04519
3780.00329	0.04529
3777.94334	0.04578
3775.88340	0.04567
3773.82345	0.04508
3771.76350	0.04481
3769.70355	0.04530
3767.64361	0.04575
3765.58366	0.04585
3763.52371	0.04562
3761.46376	0.04507
3759.40382	0.04522
3757.34387	0.04554
3755.28392	0.04487
3753.22398	0.04422
3751.16403	0.04537
3749.10408	0.04663
3747.04413	0.04584
3744.98419	0.04596
3742.92424	0.04697
3740.86429	0.04598
3738.80434	0.04446
3736.74440	0.04438
3734.68445	0.04596
3732.62450	0.04698
3730.56455	0.04639
3728.50461	0.04527
3726.44466	0.04489
3724.38471	0.04522
3722.32477	0.04549
3720.26482	0.04554
3718.20487	0.04519
3716.14492	0.04440
3714.08498	0.04380
3712.02503	0.04462
3709.96508	0.04612
3707.90513	0.04613
3705.84519	0.04521
3703.78524	0.04469
3701.72529	0.04531
3699.66535	0.04593
3697.60540	0.04573
3695.54545	0.04528
3693.48550	0.04478
3691.42556	0.04469
3689.36561	0.04585
3687.30566	0.04678
3685.24571	0.04619
3683.18577	0.04525
3681.12582	0.04458
3679.06587	0.04400
3677.00593	0.04417
3674.94598	0.04591
3672.88603	0.04620
3670.82608	0.04583
3668.76614	0.04663
3666.70619	0.04651
3664.64624	0.04565
3662.58629	0.04513
3660.52635	0.04480
3658.46640	0.04461
3656.40645	0.04506
3654.34651	0.04497
3652.28656	0.04390
3650.22661	0.04421
3648.16666	0.04649
3646.10672	0.04699
3644.04677	0.04605
3641.98682	0.04547
3639.92687	0.04539
3637.86693	0.04529
3635.80698	0.04511
3633.74703	0.04476
3631.68708	0.04406
3629.62714	0.04455
3627.56719	0.04643
3625.50724	0.04634
3623.44730	0.04519
3621.38735	0.04459
3619.32740	0.04512
3617.26745	0.04564
3615.20751	0.04540
3613.14756	0.04543
3611.08761	0.04559
3609.02766	0.04579
3606.96772	0.04600
3604.90777	0.04548
3602.84782	0.04478
3600.78788	0.04473
3598.72793	0.04493
3596.66798	0.04490
3594.60803	0.04500
3592.54809	0.04488
3590.48814	0.04432
3588.42819	0.04448
3586.36824	0.04542
3584.30830	0.04536
3582.24835	0.04479
3580.18840	0.04464
3578.12846	0.04474
3576.06851	0.04477
3574.00856	0.04472
3571.94861	0.04439
3569.88867	0.04397
3567.82872	0.04455
3565.76877	0.04569
3563.70882	0.04557
3561.64888	0.04503
3559.58893	0.04494
3557.52898	0.04494
3555.46903	0.04477
3553.40909	0.04476
3551.34914	0.04489
3549.28919	0.04479
3547.22925	0.04485
3545.16930	0.04532
3543.10935	0.04552
3541.04940	0.04525
3538.98946	0.04497
3536.92951	0.04494
3534.86956	0.04503
3532.80961	0.04500
3530.74967	0.04491
3528.68972	0.04496
3526.62977	0.04508
3524.56983	0.04521
3522.50988	0.04532
3520.44993	0.04529
3518.38998	0.04525
3516.33004	0.04523
3514.27009	0.04511
3512.21014	0.04502
3510.15019	0.04514
3508.09025	0.04534
3506.03030	0.04533
3503.97035	0.04537
3501.91041	0.04553
3499.85046	0.04544
3497.79051	0.04524
3495.73056	0.04522
3493.67062	0.04525
3491.61067	0.04517
3489.55072	0.04512
3487.49077	0.04514
3485.43083	0.04513
3483.37088	0.04519
3481.31093	0.04534
3479.25098	0.04535
3477.19104	0.04524
3475.13109	0.04525
3473.07114	0.04533
3471.01120	0.04532
3468.95125	0.04522
3466.89130	0.04519
3464.83135	0.04529
3462.77141	0.04544
3460.71146	0.04554
3458.65151	0.04546
3456.59156	0.04535
3454.53162	0.04536
3452.47167	0.04540
3450.41172	0.04537
3448.35178	0.04546
3446.29183	0.04561
3444.23188	0.04559
3442.17193	0.04554
3440.11199	0.04552
3438.05204	0.04542
3435.99209	0.04529
3433.93214	0.04521
3431.87220	0.04522
3429.81225	0.04525
3427.75230	0.04530
3425.69236	0.04537
3423.63241	0.04541
3421.57246	0.04543
3419.51251	0.04546
3417.45257	0.04544
3415.39262	0.04542
3413.33267	0.04542
3411.27272	0.04541
3409.21278	0.04539
3407.15283	0.04533
3405.09288	0.04530
3403.03293	0.04534
3400.97299	0.04537
3398.91304	0.04533
3396.85309	0.04525
3394.79315	0.04524
3392.73320	0.04531
3390.67325	0.04535
3388.61330	0.04533
3386.55336	0.04538
3384.49341	0.04537
3382.43346	0.04527
3380.37351	0.04524
3378.31357	0.04525
3376.25362	0.04528
3374.19367	0.04537
3372.13373	0.04540
3370.07378	0.04532
3368.01383	0.04524
3365.95388	0.04520
3363.89394	0.04519
3361.83399	0.04517
3359.77404	0.04511
3357.71409	0.04508
3355.65415	0.04515
3353.59420	0.04525
3351.53425	0.04522
3349.47431	0.04516
3347.41436	0.04520
3345.35441	0.04526
3343.29446	0.04524
3341.23452	0.04517
3339.17457	0.04510
3337.11462	0.04511
3335.05467	0.04521
3332.99473	0.04523
3330.93478	0.04510
3328.87483	0.04496
3326.81488	0.04488
3324.75494	0.04493
3322.69499	0.04506
3320.63504	0.04513
3318.57510	0.04514
3316.51515	0.04519
3314.45520	0.04519
3312.39525	0.04508
3310.33531	0.04498
3308.27536	0.04498
3306.21541	0.04495
3304.15546	0.04484
3302.09552	0.04480
3300.03557	0.04482
3297.97562	0.04479
3295.91568	0.04477
3293.85573	0.04483
3291.79578	0.04491
3289.73583	0.04495
3287.67589	0.04498
3285.61594	0.04497
3283.55599	0.04483
3281.49604	0.04465
3279.43610	0.04460
3277.37615	0.04466
3275.31620	0.04475
3273.25626	0.04482
3271.19631	0.04482
3269.13636	0.04475
3267.07641	0.04471
3265.01647	0.04469
3262.95652	0.04467
3260.89657	0.04462
3258.83662	0.04460
3256.77668	0.04459
3254.71673	0.04453
3252.65678	0.04444
3250.59683	0.04437
3248.53689	0.04432
3246.47694	0.04431
3244.41699	0.04431
3242.35705	0.04426
3240.29710	0.04424
3238.23715	0.04424
3236.17720	0.04424
3234.11726	0.04426
3232.05731	0.04424
3229.99736	0.04415
3227.93741	0.04406
3225.87747	0.04404
3223.81752	0.04406
3221.75757	0.04406
3219.69763	0.04400
3217.63768	0.04390
3215.57773	0.04382
3213.51778	0.04383
3211.45784	0.04384
3209.39789	0.04379
3207.33794	0.04372
3205.27799	0.04367
3203.21805	0.04358
3201.15810	0.04348
3199.09815	0.04350
3197.03821	0.04356
3194.97826	0.04353
3192.91831	0.04347
3190.85836	0.04343
3188.79842	0.04337
3186.73847	0.04333
3184.67852	0.04336
3182.61857	0.04335
3180.55863	0.04321
3178.49868	0.04311
3176.43873	0.04310
3174.37878	0.04308
3172.31884	0.04300
3170.25889	0.04290
3168.19894	0.04284
3166.13900	0.04281
3164.07905	0.04282
3162.01910	0.04287
3159.95915	0.04289
3157.89921	0.04282
3155.83926	0.04272
3153.77931	0.04263
3151.71936	0.04257
3149.65942	0.04253
3147.59947	0.04251
3145.53952	0.04252
3143.47958	0.04252
3141.41963	0.04247
3139.35968	0.04239
3137.29973	0.04228
3135.23979	0.04223
3133.17984	0.04225
3131.11989	0.04226
3129.05994	0.04222
3127.00000	0.04220
3124.94005	0.04215
3122.88010	0.04210
3120.82016	0.04204
3118.76021	0.04191
3116.70026	0.04187
3114.64031	0.04199
3112.58037	0.04204
3110.52042	0.04199
3108.46047	0.04192
3106.40052	0.04186
3104.34058	0.04183
3102.28063	0.04184
3100.22068	0.04181
3098.16073	0.04174
3096.10079	0.04173
3094.04084	0.04176
3091.98089	0.04174
3089.92095	0.04168
3087.86100	0.04161
3085.80105	0.04153
3083.74110	0.04146
3081.68116	0.04148
3079.62121	0.04150
3077.56126	0.04147
3075.50131	0.04150
3073.44137	0.04158
3071.38142	0.04155
3069.32147	0.04144
3067.26153	0.04141
3065.20158	0.04146
3063.14163	0.04144
3061.08168	0.04136
3059.02174	0.04131
3056.96179	0.04132
3054.90184	0.04131
3052.84189	0.04127
3050.78195	0.04124
3048.72200	0.04123
3046.66205	0.04120
3044.60211	0.04112
3042.54216	0.04104
3040.48221	0.04103
3038.42226	0.04109
3036.36232	0.04113
3034.30237	0.04111
3032.24242	0.04112
3030.18247	0.04116
3028.12253	0.04112
3026.06258	0.04105
3024.00263	0.04105
3021.94268	0.04110
3019.88274	0.04117
3017.82279	0.04125
3015.76284	0.04128
3013.70290	0.04128
3011.64295	0.04127
3009.58300	0.04122
3007.52305	0.04120
3005.46311	0.04131
3003.40316	0.04146
3001.34321	0.04152
2999.28326	0.04156
2997.22332	0.04160
2995.16337	0.04167
2993.10342	0.04179
2991.04348	0.04189
2988.98353	0.04191
2986.92358	0.04191
2984.86363	0.04189
2982.80369	0.04186
2980.74374	0.04185
2978.68379	0.04184
2976.62384	0.04181
2974.56390	0.04175
2972.50395	0.04172
2970.44400	0.04173
2968.38406	0.04171
2966.32411	0.04161
2964.26416	0.04151
2962.20421	0.04147
2960.14427	0.04145
2958.08432	0.04141
2956.02437	0.04131
2953.96442	0.04123
2951.90448	0.04119
2949.84453	0.04118
2947.78458	0.04119
2945.72463	0.04120
2943.66469	0.04118
2941.60474	0.04117
2939.54479	0.04118
2937.48485	0.04120
2935.42490	0.04119
2933.36495	0.04118
2931.30500	0.04123
2929.24506	0.04134
2927.18511	0.04142
2925.12516	0.04147
2923.06521	0.04152
2921.00527	0.04160
2918.94532	0.04161
2916.88537	0.04147
2914.82543	0.04128
2912.76548	0.04114
2910.70553	0.04109
2908.64558	0.04105
2906.58564	0.04102
2904.52569	0.04106
2902.46574	0.04110
2900.40579	0.04103
2898.34585	0.04089
2896.28590	0.04077
2894.22595	0.04066
2892.16601	0.04059
2890.10606	0.04058
2888.04611	0.04051
2885.98616	0.04036
2883.92622	0.04023
2881.86627	0.04016
2879.80632	0.04012
2877.74637	0.04006
2875.68643	0.03997
2873.62648	0.03987
2871.56653	0.03975
2869.50658	0.03963
2867.44664	0.03957
2865.38669	0.03957
2863.32674	0.03959
2861.26680	0.03955
2859.20685	0.03945
2857.14690	0.03940
2855.08695	0.03942
2853.02701	0.03944
2850.96706	0.03943
2848.90711	0.03937
2846.84716	0.03926
2844.78722	0.03910
2842.72727	0.03895
2840.66732	0.03880
2838.60738	0.03862
2836.54743	0.03849
2834.48748	0.03844
2832.42753	0.03843
2830.36759	0.03843
2828.30764	0.03835
2826.24769	0.03816
2824.18774	0.03804
2822.12780	0.03804
2820.06785	0.03804
2818.00790	0.03801
2815.94796	0.03799
2813.88801	0.03799
2811.82806	0.03797
2809.76811	0.03795
2807.70817	0.03790
2805.64822	0.03783
2803.58827	0.03776
2801.52832	0.03768
2799.46838	0.03762
2797.40843	0.03760
2795.34848	0.03756
2793.28853	0.03750
2791.22859	0.03744
2789.16864	0.03741
2787.10869	0.03744
2785.04875	0.03748
2782.98880	0.03743
2780.92885	0.03735
2778.86890	0.03732
2776.80896	0.03731
2774.74901	0.03722
2772.68906	0.03709
2770.62911	0.03701
2768.56917	0.03693
2766.50922	0.03689
2764.44927	0.03690
2762.38933	0.03689
2760.32938	0.03685
2758.26943	0.03680
2756.20948	0.03676
2754.14954	0.03673
2752.08959	0.03673
2750.02964	0.03673
2747.96969	0.03667
2745.90975	0.03659
2743.84980	0.03653
2741.78985	0.03651
2739.72991	0.03652
2737.66996	0.03654
2735.61001	0.03655
2733.55006	0.03653
2731.49012	0.03648
2729.43017	0.03641
2727.37022	0.03634
2725.31027	0.03629
2723.25033	0.03626
2721.19038	0.03621
2719.13043	0.03616
2717.07048	0.03612
2715.01054	0.03609
2712.95059	0.03601
2710.89064	0.03596
2708.83070	0.03600
2706.77075	0.03604
2704.71080	0.03601
2702.65085	0.03594
2700.59091	0.03589
2698.53096	0.03589
2696.47101	0.03589
2694.41106	0.03582
2692.35112	0.03573
2690.29117	0.03569
2688.23122	0.03566
2686.17128	0.03564
2684.11133	0.03562
2682.05138	0.03559
2679.99143	0.03556
2677.93149	0.03552
2675.87154	0.03549
2673.81159	0.03546
2671.75164	0.03545
2669.69170	0.03549
2667.63175	0.03564
2665.57180	0.03588
2663.51186	0.03613
2661.45191	0.03631
2659.39196	0.03640
2657.33201	0.03642
2655.27207	0.03641
2653.21212	0.03642
2651.15217	0.03647
2649.09222	0.03645
2647.03228	0.03634
2644.97233	0.03621
2642.91238	0.03612
2640.85243	0.03606
2638.79249	0.03595
2636.73254	0.03579
2634.67259	0.03565
2632.61265	0.03559
2630.55270	0.03554
2628.49275	0.03544
2626.43280	0.03531
2624.37286	0.03518
2622.31291	0.03504
2620.25296	0.03495
2618.19301	0.03493
2616.13307	0.03485
2614.07312	0.03470
2612.01317	0.03455
2609.95323	0.03442
2607.89328	0.03435
2605.83333	0.03432
2603.77338	0.03425
2601.71344	0.03414
2599.65349	0.03404
2597.59354	0.03394
2595.53359	0.03382
2593.47365	0.03372
2591.41370	0.03363
2589.35375	0.03353
2587.29381	0.03340
2585.23386	0.03330
2583.17391	0.03333
2581.11396	0.03339
2579.05402	0.03329
2576.99407	0.03314
2574.93412	0.03308
2572.87417	0.03305
2570.81423	0.03300
2568.75428	0.03293
2566.69433	0.03284
2564.63438	0.03273
2562.57444	0.03265
2560.51449	0.03259
2558.45454	0.03254
2556.39460	0.03245
2554.33465	0.03235
2552.27470	0.03233
2550.21475	0.03232
2548.15481	0.03221
2546.09486	0.03204
2544.03491	0.03192
2541.97496	0.03184
2539.91502	0.03185
2537.85507	0.03191
2535.79512	0.03194
2533.73518	0.03189
2531.67523	0.03179
2529.61528	0.03168
2527.55533	0.03160
2525.49539	0.03163
2523.43544	0.03169
2521.37549	0.03164
2519.31554	0.03154
2517.25560	0.03148
2515.19565	0.03147
2513.13570	0.03145
2511.07576	0.03132
2509.01581	0.03118
2506.95586	0.03117
2504.89591	0.03116
2502.83597	0.03108
2500.77602	0.03102
2498.71607	0.03105
2496.65612	0.03108
2494.59618	0.03108
2492.53623	0.03106
2490.47628	0.03098
2488.41633	0.03088
2486.35639	0.03082
2484.29644	0.03076
2482.23649	0.03071
2480.17655	0.03071
2478.11660	0.03068
2476.05665	0.03062
2473.99670	0.03060
2471.93676	0.03064
2469.87681	0.03066
2467.81686	0.03065
2465.75691	0.03071
2463.69697	0.03077
2461.63702	0.03080
2459.57707	0.03080
2457.51713	0.03080
2455.45718	0.03080
2453.39723	0.03077
2451.33728	0.03074
2449.27734	0.03065
2447.21739	0.03046
2445.15744	0.03032
2443.09749	0.03018
2441.03755	0.03005
2438.97760	0.03002
2436.91765	0.03001
2434.85771	0.02996
2432.79776	0.02990
2430.73781	0.02977
2428.67786	0.02961
2426.61792	0.02951
2424.55797	0.02944
2422.49802	0.02934
2420.43807	0.02934
2418.37813	0.02942
2416.31818	0.02944
2414.25823	0.02934
2412.19828	0.02920
2410.13834	0.02900
2408.07839	0.02876
2406.01844	0.02865
2403.95850	0.02863
2401.89855	0.02858
2399.83860	0.02855
2397.77865	0.02852
2395.71871	0.02845
2393.65876	0.02843
2391.59881	0.02842
2389.53886	0.02835
2387.47892	0.02829
2385.41897	0.02828
2383.35902	0.02825
2381.29908	0.02819
2379.23913	0.02821
2377.17918	0.02831
2375.11923	0.02831
2373.05929	0.02819
2370.99934	0.02809
2368.93939	0.02819
2366.87944	0.02857
2364.81950	0.02920
2362.75955	0.02990
2360.69960	0.03039
2358.63966	0.03056
2356.57971	0.03053
2354.51976	0.03053
2352.45981	0.03055
2350.39987	0.03026
2348.33992	0.02978
2346.27997	0.02961
2344.22002	0.02991
2342.16008	0.03015
2340.10013	0.03008
2338.04018	0.03004
2335.98023	0.03012
2333.92029	0.03026
2331.86034	0.03059
2329.80039	0.03146
2327.74045	0.03293
2325.68050	0.03392
2323.62055	0.03353
2321.56060	0.03253
2319.50066	0.03180
2317.44071	0.03134
2315.38076	0.03102
2313.32081	0.03079
2311.26087	0.03066
2309.20092	0.03058
2307.14097	0.03046
2305.08103	0.03027
2303.02108	0.03017
2300.96113	0.03024
2298.90118	0.03036
2296.84124	0.03052
2294.78129	0.03079
2292.72134	0.03111
2290.66139	0.03136
2288.60145	0.03142
2286.54150	0.03120
2284.48155	0.03080
2282.42161	0.03041
2280.36166	0.03011
2278.30171	0.02980
2276.24176	0.02945
2274.18182	0.02925
2272.12187	0.02920
2270.06192	0.02898
2268.00197	0.02852
2265.94203	0.02820
2263.88208	0.02826
2261.82213	0.02843
2259.76218	0.02850
2257.70224	0.02824
2255.64229	0.02770
2253.58234	0.02735
2251.52240	0.02733
2249.46245	0.02743
2247.40250	0.02753
2245.34255	0.02754
2243.28261	0.02737
2241.22266	0.02724
2239.16271	0.02732
2237.10276	0.02738
2235.04282	0.02737
2232.98287	0.02731
2230.92292	0.02721
2228.86298	0.02703
2226.80303	0.02686
2224.74308	0.02680
2222.68313	0.02682
2220.62319	0.02672
2218.56324	0.02642
2216.50329	0.02625
2214.44334	0.02630
2212.38340	0.02633
2210.32345	0.02629
2208.26350	0.02641
2206.20356	0.02670
2204.14361	0.02688
2202.08366	0.02672
2200.02371	0.02650
2197.96377	0.02646
2195.90382	0.02641
2193.84387	0.02645
2191.78392	0.02661
2189.72398	0.02656
2187.66403	0.02634
2185.60408	0.02585
2183.54413	0.02497
2181.48419	0.02466
2179.42424	0.02489
2177.36429	0.02444
2175.30435	0.02408
2173.24440	0.02500
2171.18445	0.02642
2169.12450	0.02731
2167.06456	0.02777
2165.00461	0.02804
2162.94466	0.02661
2160.88471	0.02157
2158.82477	0.01633
2156.76482	0.01559
2154.70487	0.01725
2152.64493	0.01854
2150.58498	0.01922
2148.52503	0.01937
2146.46508	0.01939
2144.40514	0.01962
2142.34519	0.01982
2140.28524	0.01987
2138.22529	0.01948
2136.16535	0.01868
2134.10540	0.01838
2132.04545	0.01902
2129.98551	0.02009
2127.92556	0.02105
2125.86561	0.02178
2123.80566	0.02237
2121.74572	0.02293
2119.68577	0.02357
2117.62582	0.02424
2115.56587	0.02463
2113.50593	0.02459
2111.44598	0.02446
2109.38603	0.02441
2107.32608	0.02435
2105.26614	0.02429
2103.20619	0.02427
2101.14624	0.02416
2099.08630	0.02377
2097.02635	0.02319
2094.96640	0.02288
2092.90645	0.02312
2090.84651	0.02366
2088.78656	0.02409
2086.72661	0.02432
2084.66666	0.02456
2082.60672	0.02485
2080.54677	0.02504
2078.48682	0.02500
2076.42688	0.02472
2074.36693	0.02447
2072.30698	0.02447
2070.24703	0.02438
2068.18709	0.02410
2066.12714	0.02386
2064.06719	0.02379
2062.00724	0.02398
2059.94730	0.02429
2057.88735	0.02449
2055.82740	0.02468
2053.76746	0.02546
2051.70751	0.02610
2049.64756	0.02539
2047.58761	0.02445
2045.52767	0.02422
2043.46772	0.02420
2041.40777	0.02432
2039.34782	0.02449
2037.28788	0.02421
2035.22793	0.02352
2033.16798	0.02300
2031.10803	0.02249
2029.04809	0.02165
2026.98814	0.02120
2024.92819	0.02165
2022.86825	0.02212
2020.80830	0.02188
2018.74835	0.02144
2016.68840	0.02132
2014.62846	0.02139
2012.56851	0.02150
2010.50856	0.02141
2008.44861	0.02073
2006.38867	0.02011
2004.32872	0.02042
2002.26877	0.02123
2000.20883	0.02186
1998.14888	0.02222
1996.08893	0.02255
1994.02898	0.02297
1991.96904	0.02342
1989.90909	0.02381
1987.84914	0.02421
1985.78919	0.02501
1983.72925	0.02615
1981.66930	0.02639
1979.60935	0.02444
1977.54941	0.02160
1975.48946	0.02031
1973.42951	0.02016
1971.36956	0.01997
1969.30962	0.01981
1967.24967	0.02009
1965.18972	0.02053
1963.12977	0.02047
1961.06983	0.01984
1959.00988	0.01935
1956.94993	0.01948
1954.88998	0.01991
1952.83004	0.02027
1950.77009	0.02034
1948.71014	0.02019
1946.65020	0.02010
1944.59025	0.02032
1942.53030	0.02075
1940.47035	0.02092
1938.41041	0.02084
1936.35046	0.02081
1934.29051	0.02079
1932.23056	0.02074
1930.17062	0.02070
1928.11067	0.02064
1926.05072	0.02060
1923.99078	0.02079
1921.93083	0.02119
1919.87088	0.02144
1917.81093	0.02159
1915.75099	0.02175
1913.69104	0.02185
1911.63109	0.02191
1909.57114	0.02191
1907.51120	0.02197
1905.45125	0.02217
1903.39130	0.02232
1901.33136	0.02230
1899.27141	0.02226
1897.21146	0.02224
1895.15151	0.02223
1893.09157	0.02228
1891.03162	0.02239
1888.97167	0.02251
1886.91172	0.02260
1884.85178	0.02274
1882.79183	0.02288
1880.73188	0.02290
1878.67193	0.02293
1876.61199	0.02297
1874.55204	0.02294
1872.49209	0.02285
1870.43215	0.02285
1868.37220	0.02300
1866.31225	0.02300
1864.25230	0.02283
1862.19236	0.02270
1860.13241	0.02262
1858.07246	0.02252
1856.01251	0.02238
1853.95257	0.02221
1851.89262	0.02201
1849.83267	0.02184
1847.77273	0.02173
1845.71278	0.02170
1843.65283	0.02180
1841.59288	0.02173
1839.53294	0.02159
1837.47299	0.02161
1835.41304	0.02165
1833.35309	0.02160
1831.29315	0.02164
1829.23320	0.02180
1827.17325	0.02180
1825.11331	0.02182
1823.05336	0.02183
1820.99341	0.02150
1818.93346	0.02106
1816.87352	0.02097
1814.81357	0.02121
1812.75362	0.02155
1810.69367	0.02190
1808.63373	0.02211
1806.57378	0.02211
1804.51383	0.02208
1802.45388	0.02217
1800.39394	0.02234
1798.33399	0.02237
1796.27404	0.02228
1794.21410	0.02223
1792.15415	0.02238
1790.09420	0.02253
1788.03425	0.02247
1785.97431	0.02241
1783.91436	0.02236
1781.85441	0.02229
1779.79446	0.02224
1777.73452	0.02214
1775.67457	0.02205
1773.61462	0.02214
1771.55468	0.02239
1769.49473	0.02240
1767.43478	0.02227
1765.37483	0.02216
1763.31489	0.02215
1761.25494	0.02227
1759.19499	0.02228
1757.13504	0.02228
1755.07510	0.02227
1753.01515	0.02221
1750.95520	0.02239
1748.89526	0.02267
1746.83531	0.02271
1744.77536	0.02267
1742.71541	0.02266
1740.65547	0.02274
1738.59552	0.02284
1736.53557	0.02280
1734.47562	0.02304
1732.41568	0.02342
1730.35573	0.02338
1728.29578	0.02328
1726.23583	0.02318
1724.17589	0.02314
1722.11594	0.02316
1720.05599	0.02318
1717.99605	0.02356
1715.93610	0.02413
1713.87615	0.02420
1711.81620	0.02404
1709.75626	0.02391
1707.69631	0.02395
1705.63636	0.02422
1703.57641	0.02432
1701.51647	0.02437
1699.45652	0.02482
1697.39657	0.02507
1695.33663	0.02523
1693.27668	0.02526
1691.21673	0.02520
1689.15678	0.02528
1687.09684	0.02529
1685.03689	0.02556
1682.97694	0.02618
1680.91699	0.02622
1678.85705	0.02603
1676.79710	0.02600
1674.73715	0.02623
1672.67721	0.02637
1670.61726	0.02649
1668.55731	0.02671
1666.49736	0.02659
1664.43742	0.02646
1662.37747	0.02669
1660.31752	0.02686
1658.25757	0.02676
1656.19763	0.02658
1654.13768	0.02693
1652.07773	0.02784
1650.01778	0.02776
1647.95784	0.02770
1645.89789	0.02807
1643.83794	0.02797
1641.77800	0.02767
1639.71805	0.02753
1637.65810	0.02765
1635.59815	0.02826
1633.53821	0.02855
1631.47826	0.02830
1629.41831	0.02821
1627.35836	0.02835
1625.29842	0.02845
1623.23847	0.02863
1621.17852	0.02869
1619.11858	0.02855
1617.05863	0.02874
1614.99868	0.02904
1612.93873	0.02888
1610.87879	0.02868
1608.81884	0.02865
1606.75889	0.02865
1604.69894	0.02862
1602.63900	0.02857
1600.57905	0.02846
1598.51910	0.02832
1596.45916	0.02826
1594.39921	0.02824
1592.33926	0.02813
1590.27931	0.02800
1588.21937	0.02790
1586.15942	0.02778
1584.09947	0.02764
1582.03952	0.02753
1579.97958	0.02738
1577.91963	0.02730
1575.85968	0.02749
1573.79973	0.02746
1571.73979	0.02717
1569.67984	0.02709
1567.61989	0.02708
1565.55995	0.02693
1563.50000	0.02667
1561.44005	0.02634
1559.38010	0.02655
1557.32016	0.02707
1555.26021	0.02679
1553.20026	0.02648
1551.14031	0.02632
1549.08037	0.02622
1547.02042	0.02608
1544.96047	0.02603
1542.90053	0.02610
1540.84058	0.02633
1538.78063	0.02644
1536.72068	0.02602
1534.66074	0.02575
1532.60079	0.02580
1530.54084	0.02569
1528.48089	0.02549
1526.42095	0.02546
1524.36100	0.02540
1522.30105	0.02546
1520.24111	0.02559
1518.18116	0.02543
1516.12121	0.02522
1514.06126	0.02503
1512.00132	0.02482
1509.94137	0.02466
1507.88142	0.02484
1505.82147	0.02522
1503.76153	0.02488
1501.70158	0.02445
1499.64163	0.02426
1497.58168	0.02434
1495.52174	0.02441
1493.46179	0.02425
1491.40184	0.02417
1489.34190	0.02437
1487.28195	0.02446
1485.22200	0.02431
1483.16205	0.02419
1481.10211	0.02417
1479.04216	0.02417
1476.98221	0.02423
1474.92226	0.02445
1472.86232	0.02485
1470.80237	0.02503
1468.74242	0.02487
1466.68248	0.02478
1464.62253	0.02496
1462.56258	0.02502
1460.50263	0.02491
1458.44269	0.02516
1456.38274	0.02577
1454.32279	0.02575
1452.26284	0.02546
1450.20290	0.02530
1448.14295	0.02532
1446.08300	0.02537
1444.02306	0.02532
1441.96311	0.02522
1439.90316	0.02511
1437.84321	0.02522
1435.78327	0.02555
1433.72332	0.02556
1431.66337	0.02543
1429.60342	0.02544
1427.54348	0.02540
1425.48353	0.02535
1423.42358	0.02543
1421.36363	0.02548
1419.30369	0.02564
1417.24374	0.02584
1415.18379	0.02577
1413.12385	0.02566
1411.06390	0.02564
1409.00395	0.02561
1406.94400	0.02555
1404.88406	0.02552
1402.82411	0.02543
1400.76416	0.02529
1398.70421	0.02524
1396.64427	0.02528
1394.58432	0.02536
1392.52437	0.02524
1390.46443	0.02494
1388.40448	0.02482
1386.34453	0.02491
1384.28458	0.02493
1382.22464	0.02488
1380.16469	0.02484
1378.10474	0.02479
1376.04479	0.02476
1373.98485	0.02477
1371.92490	0.02468
1369.86495	0.02450
1367.80501	0.02436
1365.74506	0.02424
1363.68511	0.02417
1361.62516	0.02415
1359.56522	0.02404
1357.50527	0.02391
1355.44532	0.02380
1353.38537	0.02370
1351.32543	0.02362
1349.26548	0.02358
1347.20553	0.02353
1345.14558	0.02349
1343.08564	0.02346
1341.02569	0.02349
1338.96574	0.02356
1336.90580	0.02356
1334.84585	0.02347
1332.78590	0.02339
1330.72595	0.02334
1328.66601	0.02327
1326.60606	0.02323
1324.54611	0.02324
1322.48616	0.02327
1320.42622	0.02332
1318.36627	0.02338
1316.30632	0.02341
1314.24638	0.02343
1312.18643	0.02345
1310.12648	0.02346
1308.06653	0.02347
1306.00659	0.02350
1303.94664	0.02356
1301.88669	0.02367
1299.82674	0.02379
1297.76680	0.02389
1295.70685	0.02398
1293.64690	0.02408
1291.58696	0.02421
1289.52701	0.02436
1287.46706	0.02456
1285.40711	0.02480
1283.34717	0.02502
1281.28722	0.02522
1279.22727	0.02538
1277.16732	0.02552
1275.10738	0.02564
1273.04743	0.02581
1270.98748	0.02599
1268.92753	0.02615
1266.86759	0.02630
1264.80764	0.02647
1262.74769	0.02669
1260.68775	0.02693
1258.62780	0.02716
1256.56785	0.02741
1254.50790	0.02772
1252.44796	0.02811
1250.38801	0.02853
1248.32806	0.02891
1246.26811	0.02923
1244.20817	0.02958
1242.14822	0.03000
1240.08827	0.03039
1238.02833	0.03078
1235.96838	0.03129
1233.90843	0.03185
1231.84848	0.03244
1229.78854	0.03311
1227.72859	0.03385
1225.66864	0.03471
1223.60869	0.03578
1221.54875	0.03703
1219.48880	0.03841
1217.42885	0.03995
1215.36891	0.04157
1213.30896	0.04318
1211.24901	0.04478
1209.18906	0.04635
1207.12912	0.04788
1205.06917	0.04937
1203.00922	0.05082
1200.94927	0.05219
1198.88933	0.05347
1196.82938	0.05470
1194.76943	0.05590
1192.70949	0.05707
1190.64954	0.05818
1188.58959	0.05924
1186.52964	0.06031
1184.46970	0.06146
1182.40975	0.06271
1180.34980	0.06408
1178.28985	0.06563
1176.22991	0.06739
1174.16996	0.06938
1172.11001	0.07165
1170.05006	0.07421
1167.99012	0.07699
1165.93017	0.07981
1163.87022	0.08211
1161.81028	0.08306
1159.75033	0.08243
1157.69038	0.08102
1155.63043	0.07994
1153.57049	0.07964
1151.51054	0.08008
1149.45059	0.08104
1147.39064	0.08228
1145.33070	0.08365
1143.27075	0.08515
1141.21080	0.08684
1139.15086	0.08867
1137.09091	0.09062
1135.03096	0.09272
1132.97101	0.09501
1130.91107	0.09741
1128.85112	0.09990
1126.79117	0.10250
1124.73122	0.10518
1122.67128	0.10793
1120.61133	0.11079
1118.55138	0.11378
1116.49144	0.11680
1114.43149	0.11982
1112.37154	0.12295
1110.31159	0.12619
1108.25165	0.12953
1106.19170	0.13304
1104.13175	0.13671
1102.07180	0.14044
1100.01186	0.14421
1097.95191	0.14800
1095.89196	0.15176
1093.83201	0.15549
1091.77207	0.15925
1089.71212	0.16302
1087.65217	0.16651
1085.59223	0.16954
1083.53228	0.17208
1081.47233	0.17418
1079.41238	0.17582
1077.35244	0.17691
1075.29249	0.17734
1073.23254	0.17730
1071.17259	0.17709
1069.11265	0.17711
1067.05270	0.17751
1064.99275	0.17784
1062.93281	0.17779
1060.87286	0.17747
1058.81291	0.17693
1056.75296	0.17602
1054.69302	0.17475
1052.63307	0.17335
1050.57312	0.17193
1048.51317	0.17053
1046.45323	0.16914
1044.39328	0.16790
1042.33333	0.16689
1040.27339	0.16604
1038.21344	0.16511
1036.15349	0.16397
1034.09354	0.16269
1032.03360	0.16140
1029.97365	0.16013
1027.91370	0.15884
1025.85375	0.15748
1023.79381	0.15610
1021.73386	0.15482
1019.67391	0.15365
1017.61396	0.15259
1015.55402	0.15161
1013.49407	0.15059
1011.43412	0.14952
1009.37418	0.14845
1007.31423	0.14737
1005.25428	0.14625
1003.19433	0.14508
1001.13439	0.14382
999.07444	0.14250
997.01449	0.14118
994.95454	0.13984
992.89460	0.13849
990.83465	0.13721
988.77470	0.13594
986.71476	0.13455
984.65481	0.13314
982.59486	0.13180
980.53491	0.13043
978.47497	0.12894
976.41502	0.12743
974.35507	0.12597
972.29512	0.12448
970.23518	0.12302
968.17523	0.12166
966.11528	0.12030
964.05534	0.11890
961.99539	0.11746
959.93544	0.11599
957.87549	0.11454
955.81555	0.11308
953.75560	0.11163
951.69565	0.11028
949.63570	0.10900
947.57576	0.10769
945.51581	0.10637
943.45586	0.10509
941.39591	0.10388
939.33597	0.10273
937.27602	0.10156
935.21607	0.10035
933.15613	0.09914
931.09618	0.09795
929.03623	0.09676
926.97628	0.09559
924.91634	0.09444
922.85639	0.09331
920.79644	0.09226
918.73649	0.09135
916.67655	0.09043
914.61660	0.08935
912.55665	0.08818
910.49671	0.08696
908.43676	0.08566
906.37681	0.08422
904.31686	0.08268
902.25692	0.08122
900.19697	0.07987
898.13702	0.07851
896.07707	0.07714
894.01713	0.07570
891.95718	0.07418
889.89723	0.07275
887.83729	0.07151
885.77734	0.07032
883.71739	0.06904
881.65744	0.06770
879.59750	0.06638
877.53755	0.06508
875.47760	0.06375
873.41765	0.06237
871.35771	0.06098
869.29776	0.05959
867.23781	0.05824
865.17786	0.05693
863.11792	0.05562
861.05797	0.05428
858.99802	0.05304
856.93808	0.05194
854.87813	0.05089
852.81818	0.04988
850.75823	0.04899
848.69829	0.04820
846.63834	0.04745
844.57839	0.04674
842.51844	0.04623
840.45850	0.04601
838.39855	0.04592
836.33860	0.04582
834.27866	0.04584
832.21871	0.04596
830.15876	0.04617
828.09881	0.04652
826.03887	0.04703
823.97892	0.04773
821.91897	0.04871
819.85902	0.05001
817.79908	0.05170
815.73913	0.05397
813.67918	0.05711
811.61924	0.06152
809.55929	0.06754
807.49934	0.07532
805.43939	0.08468
803.37945	0.09483
801.31950	0.10448
799.25955	0.11212
797.19960	0.11647
795.13966	0.11735
793.07971	0.11600
791.01976	0.11422
788.95981	0.11343
786.89987	0.11450
784.83992	0.11787
782.77997	0.12312
780.72003	0.12853
778.66008	0.13187
776.60013	0.13188
774.54018	0.12885
772.48024	0.12416
770.42029	0.11913
768.36034	0.11436
766.30039	0.10993
764.24045	0.10581
762.18050	0.10207
760.12055	0.09866
758.06061	0.09540
756.00066	0.09228
753.94071	0.08947
751.88076	0.08698
749.82082	0.08455
747.76087	0.08211
745.70092	0.07987
743.64097	0.07791
741.58103	0.07603
739.52108	0.07424
737.46113	0.07266
735.40119	0.07123
733.34124	0.06991
731.28129	0.06867
729.22134	0.06746
727.16140	0.06631
725.10145	0.06526
723.04150	0.06429
720.98155	0.06338
718.92161	0.06266
716.86166	0.06210
714.80171	0.06169
712.74176	0.06153
710.68182	0.06169
708.62187	0.06223
706.56192	0.06320
704.50198	0.06481
702.44203	0.06752
700.38208	0.07204
698.32213	0.07811
696.26219	0.08342
694.20224	0.08516
692.14229	0.08289
690.08234	0.07847
688.02240	0.07384
685.96245	0.06978
683.90250	0.06639
681.84256	0.06355
679.78261	0.06110
677.72266	0.05902
675.66271	0.05732
673.60277	0.05584
671.54282	0.05453
669.48287	0.05332
667.42292	0.05193
665.36298	0.05053
663.30303	0.04936
661.24308	0.04830
659.18314	0.04733
657.12319	0.04659
655.06324	0.04606
653.00329	0.04551
650.94335	0.04486
648.88340	0.04415
646.82345	0.04343
644.76350	0.04277
642.70356	0.04224
640.64361	0.04180
638.58366	0.04130
636.52371	0.04070
634.46377	0.04012
632.40382	0.03964
630.34387	0.03917
628.28393	0.03873
626.22398	0.03835
624.16403	0.03798
622.10408	0.03763
620.04414	0.03739
617.98419	0.03723
615.92424	0.03703
613.86429	0.03676
611.80435	0.03653
609.74440	0.03639
607.68445	0.03624
605.62451	0.03612
603.56456	0.03604
601.50461	0.03587
599.44466	0.03566
597.38472	0.03556
595.32477	0.03554
593.26482	0.03561
591.20487	0.03573
589.14493	0.03572
587.08498	0.03569
585.02503	0.03576
582.96509	0.03579
580.90514	0.03582
578.84519	0.03601
576.78524	0.03629
574.72530	0.03645
572.66535	0.03653
570.60540	0.03666
568.54545	0.03689
566.48551	0.03720
564.42556	0.03744
562.36561	0.03773
560.30566	0.03830
558.24572	0.03901
556.18577	0.03990
554.12582	0.04108
552.06588	0.04262
550.00593	0.04457
547.94598	0.04686
545.88603	0.04965
543.82609	0.05313
541.76614	0.05712
539.70619	0.06133
537.64624	0.06565
535.58630	0.07016
533.52635	0.07473
531.46640	0.07906
529.40646	0.08293
527.34651	0.08663
525.28656	0.09030
523.22661	0.09317
521.16667	0.09515
519.10672	0.09652
517.04677	0.09717
514.98682	0.09712
512.92688	0.09631
510.86693	0.09459
508.80698	0.09245
506.74704	0.09101
504.68709	0.09121
502.62714	0.09340
500.56719	0.09707
498.50725	0.10130
496.44730	0.10583
494.38735	0.11048
492.32740	0.11500
490.26746	0.11925
488.20751	0.12347
486.14756	0.12816
484.08761	0.13344
482.02767	0.13895
479.96772	0.14439
477.90777	0.14958
475.84783	0.15451
473.78788	0.16005
471.72793	0.16679
469.66798	0.17322
467.60804	0.17888
465.54809	0.18398
463.48814	0.18805
461.42819	0.19138
459.36825	0.19419
457.30830	0.19602
455.24835	0.19582
453.18841	0.19386
451.12846	0.19107
449.06851	0.18789
447.00856	0.18439
444.94862	0.18073
442.88867	0.17703
440.82872	0.17316
438.76877	0.16947
436.70883	0.16645
434.64888	0.16391
432.58893	0.16128
430.52899	0.15826
428.46904	0.15467
426.40909	0.15063
424.34914	0.14688
422.28920	0.14361
420.22925	0.13971
418.16930	0.13474
416.10935	0.13021
414.04941	0.12546
411.98946	0.11966
409.92951	0.11297
407.86956	0.10668
405.80962	0.10424
403.74967	0.10848
401.68972	0.11874
399.62978	0.13446
