3996.29776	0.04159
3994.23781	0.04156
3992.17786	0.04154
3990.11791	0.04157
3988.05797	0.04159
3985.99802	0.04148
3983.93807	0.04142
3981.87813	0.04149
3979.81818	0.04153
3977.75823	0.04150
3975.69828	0.04153
3973.63834	0.04155
3971.57839	0.04148
3969.51844	0.04141
3967.45849	0.04139
3965.39855	0.04137
3963.33860	0.04138
3961.27865	0.04146
3959.21870	0.04149
3957.15876	0.04136
3955.09881	0.04113
3953.03886	0.04099
3950.97892	0.04110
3948.91897	0.04139
3946.85902	0.04147
3944.79907	0.04133
3942.73913	0.04137
3940.67918	0.04143
3938.61923	0.04124
3936.55928	0.04100
3934.49934	0.04087
3932.43939	0.04103
3930.37944	0.04127
3928.31950	0.04123
3926.25955	0.04108
3924.19960	0.04106
3922.13965	0.04101
3920.07971	0.04094
3918.01976	0.04104
3915.95981	0.04113
3913.89986	0.04099
3911.83992	0.04073
3909.77997	0.04047
3907.72002	0.04019
3905.66008	0.04018
3903.60013	0.04058
3901.54018	0.04102
3899.48023	0.04130
3897.42029	0.04122
3895.36034	0.04075
3893.30039	0.04045
3891.24044	0.04072
3889.18050	0.04073
3887.12055	0.04045
3885.06060	0.04069
3883.00065	0.04084
3880.94071	0.04091
3878.88076	0.04106
3876.82081	0.04066
3874.76087	0.04037
3872.70092	0.04035
3870.64097	0.04049
3868.58102	0.04072
3866.52108	0.04062
3864.46113	0.04072
3862.40118	0.04093
3860.34123	0.04062
3858.28129	0.04002
3856.22134	0.03948
3854.16139	0.04004
3852.10145	0.04151
3850.04150	0.04133
3847.98155	0.04050
3845.92160	0.04002
3843.86166	0.03998
3841.80171	0.04006
3839.74176	0.04018
3837.68181	0.04056
3835.62187	0.04073
3833.56192	0.04056
3831.50197	0.04040
3829.44203	0.04018
3827.38208	0.04003
3825.32213	0.03987
3823.26218	0.03959
3821.20224	0.04000
3819.14229	0.04040
3817.08234	0.04033
3815.02239	0.04061
3812.96245	0.04041
3810.90250	0.03975
3808.84255	0.03948
3806.78260	0.03981
3804.72266	0.03977
3802.66271	0.03955
3800.60276	0.04002
3798.54282	0.04013
3796.48287	0.04002
3794.42292	0.03998
3792.36297	0.03970
3790.30303	0.03953
3788.24308	0.03951
3786.18313	0.03950
3784.12318	0.03949
3782.06324	0.03942
3780.00329	0.03957
3777.94334	0.03979
3775.88340	0.03958
3773.82345	0.03916
3771.76350	0.03895
3769.70355	0.03924
3767.64361	0.03959
3765.58366	0.03968
3763.52371	0.03950
3761.46376	0.03915
3759.40382	0.03918
3757.34387	0.03930
3755.28392	0.03892
3753.22398	0.03861
3751.16403	0.03928
3749.10408	0.03998
3747.04413	0.03958
3744.98419	0.03968
3742.92424	0.04016
3740.86429	0.03958
3738.80434	0.03873
3736.74440	0.03855
3734.68445	0.03931
3732.62450	0.03994
3730.56455	0.03960
3728.50461	0.03887
3726.44466	0.03855
3724.38471	0.03877
3722.32477	0.03909
3720.26482	0.03919
3718.20487	0.03896
3716.14492	0.03853
3714.08498	0.03827
3712.02503	0.03880
3709.96508	0.03962
3707.90513	0.03958
3705.84519	0.03907
3703.78524	0.03885
3701.72529	0.03927
3699.66535	0.03966
3697.60540	0.03960
3695.54545	0.03942
3693.48550	0.03918
3691.42556	0.03910
3689.36561	0.03968
3687.30566	0.04012
3685.24571	0.03969
3683.18577	0.03916
3681.12582	0.03887
3679.06587	0.03855
3677.00593	0.03858
3674.94598	0.03954
3672.88603	0.03970
3670.82608	0.03947
3668.76614	0.03984
3666.70619	0.03978
3664.64624	0.03940
3662.58629	0.03922
3660.52635	0.03914
3658.46640	0.03909
3656.40645	0.03929
3654.34651	0.03923
3652.28656	0.03871
3650.22661	0.03896
3648.16666	0.04028
3646.10672	0.04054
3644.04677	0.04000
3641.98682	0.03965
3639.92687	0.03958
3637.86693	0.03953
3635.80698	0.03945
3633.74703	0.03931
3631.68708	0.03910
3629.62714	0.03957
3627.56719	0.04061
3625.50724	0.04045
3623.44730	0.03975
3621.38735	0.03940
3619.32740	0.03972
3617.26745	0.04006
3615.20751	0.03997
3613.14756	0.04001
3611.08761	0.04006
3609.02766	0.04004
3606.96772	0.04007
3604.90777	0.03986
3602.84782	0.03956
3600.78788	0.03948
3598.72793	0.03949
3596.66798	0.03945
3594.60803	0.03944
3592.54809	0.03933
3590.48814	0.03906
3588.42819	0.03914
3586.36824	0.03967
3584.30830	0.03974
3582.24835	0.03945
3580.18840	0.03929
3578.12846	0.03930
3576.06851	0.03935
3574.00856	0.03937
3571.94861	0.03927
3569.88867	0.03911
3567.82872	0.03941
3565.76877	0.03996
3563.70882	0.03988
3561.64888	0.03960
3559.58893	0.03957
3557.52898	0.03968
3555.46903	0.03968
3553.40909	0.03962
3551.34914	0.03964
3549.28919	0.03965
3547.22925	0.03977
3545.16930	0.04005
3543.10935	0.04010
3541.04940	0.03991
3538.98946	0.03978
3536.92951	0.03980
3534.86956	0.03978
3532.80961	0.03971
3530.74967	0.03973
3528.68972	0.03986
3526.62977	0.04004
3524.56983	0.04018
3522.50988	0.04016
3520.44993	0.04000
3518.38998	0.03996
3516.33004	0.04006
3514.27009	0.04002
3512.21014	0.03991
3510.15019	0.04005
3508.09025	0.04034
3506.03030	0.04040
3503.97035	0.04031
3501.91041	0.04029
3499.85046	0.04027
3497.79051	0.04024
3495.73056	0.04027
3493.67062	0.04030
3491.61067	0.04026
3489.55072	0.04024
3487.49077	0.04027
3485.43083	0.04030
3483.37088	0.04039
3481.31093	0.04054
3479.25098	0.04062
3477.19104	0.04062
3475.13109	0.04062
3473.07114	0.04062
3471.01120	0.04059
3468.95125	0.04053
3466.89130	0.04054
3464.83135	0.04056
3462.77141	0.04063
3460.71146	0.04081
3458.65151	0.04087
3456.59156	0.04079
3454.53162	0.04077
3452.47167	0.04077
3450.41172	0.04071
3448.35178	0.04075
3446.29183	0.04085
3444.23188	0.04081
3442.17193	0.04077
3440.11199	0.04082
3438.05204	0.04083
3435.99209	0.04073
3433.93214	0.04065
3431.87220	0.04066
3429.81225	0.04076
3427.75230	0.04089
3425.69236	0.04100
3423.63241	0.04102
3421.57246	0.04097
3419.51251	0.04096
3417.45257	0.04099
3415.39262	0.04099
3413.33267	0.04102
3411.27272	0.04109
3409.21278	0.04112
3407.15283	0.04109
3405.09288	0.04106
3403.03293	0.04109
3400.97299	0.04105
3398.91304	0.04095
3396.85309	0.04092
3394.79315	0.04094
3392.73320	0.04093
3390.67325	0.04092
3388.61330	0.04098
3386.55336	0.04110
3384.49341	0.04112
3382.43346	0.04104
3380.37351	0.04096
3378.31357	0.04093
3376.25362	0.04097
3374.19367	0.04104
3372.13373	0.04102
3370.07378	0.04093
3368.01383	0.04088
3365.95388	0.04093
3363.89394	0.04100
3361.83399	0.04102
3359.77404	0.04099
3357.71409	0.04096
3355.65415	0.04098
3353.59420	0.04103
3351.53425	0.04098
3349.47431	0.04090
3347.41436	0.04089
3345.35441	0.04095
3343.29446	0.04095
3341.23452	0.04092
3339.17457	0.04093
3337.11462	0.04097
3335.05467	0.04097
3332.99473	0.04096
3330.93478	0.04095
3328.87483	0.04086
3326.81488	0.04073
3324.75494	0.04071
3322.69499	0.04084
3320.63504	0.04097
3318.57510	0.04102
3316.51515	0.04104
3314.45520	0.04105
3312.39525	0.04098
3310.33531	0.04090
3308.27536	0.04091
3306.21541	0.04093
3304.15546	0.04089
3302.09552	0.04082
3300.03557	0.04079
3297.97562	0.04079
3295.91568	0.04080
3293.85573	0.04083
3291.79578	0.04092
3289.73583	0.04101
3287.67589	0.04101
3285.61594	0.04098
3283.55599	0.04093
3281.49604	0.04083
3279.43610	0.04072
3277.37615	0.04065
3275.31620	0.04065
3273.25626	0.04069
3271.19631	0.04072
3269.13636	0.04073
3267.07641	0.04071
3265.01647	0.04070
3262.95652	0.04068
3260.89657	0.04061
3258.83662	0.04055
3256.77668	0.04059
3254.71673	0.04061
3252.65678	0.04053
3250.59683	0.04044
3248.53689	0.04040
3246.47694	0.04044
3244.41699	0.04048
3242.35705	0.04040
3240.29710	0.04032
3238.23715	0.04029
3236.17720	0.04024
3234.11726	0.04024
3232.05731	0.04029
3229.99736	0.04030
3227.93741	0.04022
3225.87747	0.04013
3223.81752	0.04007
3221.75757	0.04008
3219.69763	0.04007
3217.63768	0.04001
3215.57773	0.03996
3213.51778	0.03997
3211.45784	0.03997
3209.39789	0.03991
3207.33794	0.03986
3205.27799	0.03982
3203.21805	0.03973
3201.15810	0.03969
3199.09815	0.03971
3197.03821	0.03974
3194.97826	0.03973
3192.91831	0.03966
3190.85836	0.03957
3188.79842	0.03950
3186.73847	0.03947
3184.67852	0.03950
3182.61857	0.03947
3180.55863	0.03934
3178.49868	0.03923
3176.43873	0.03923
3174.37878	0.03926
3172.31884	0.03920
3170.25889	0.03911
3168.19894	0.03909
3166.13900	0.03908
3164.07905	0.03906
3162.01910	0.03906
3159.95915	0.03907
3157.89921	0.03902
3155.83926	0.03892
3153.77931	0.03885
3151.71936	0.03879
3149.65942	0.03873
3147.59947	0.03870
3145.53952	0.03867
3143.47958	0.03863
3141.41963	0.03859
3139.35968	0.03851
3137.29973	0.03839
3135.23979	0.03829
3133.17984	0.03832
3131.11989	0.03837
3129.05994	0.03836
3127.00000	0.03834
3124.94005	0.03827
3122.88010	0.03822
3120.82016	0.03822
3118.76021	0.03815
3116.70026	0.03807
3114.64031	0.03805
3112.58037	0.03805
3110.52042	0.03802
3108.46047	0.03803
3106.40052	0.03804
3104.34058	0.03803
3102.28063	0.03802
3100.22068	0.03803
3098.16073	0.03801
3096.10079	0.03801
3094.04084	0.03806
3091.98089	0.03809
3089.92095	0.03805
3087.86100	0.03795
3085.80105	0.03785
3083.74110	0.03781
3081.68116	0.03777
3079.62121	0.03771
3077.56126	0.03772
3075.50131	0.03780
3073.44137	0.03784
3071.38142	0.03778
3069.32147	0.03772
3067.26153	0.03774
3065.20158	0.03776
3063.14163	0.03768
3061.08168	0.03757
3059.02174	0.03755
3056.96179	0.03762
3054.90184	0.03762
3052.84189	0.03757
3050.78195	0.03759
3048.72200	0.03760
3046.66205	0.03748
3044.60211	0.03733
3042.54216	0.03727
3040.48221	0.03728
3038.42226	0.03732
3036.36232	0.03736
3034.30237	0.03732
3032.24242	0.03728
3030.18247	0.03732
3028.12253	0.03732
3026.06258	0.03725
3024.00263	0.03720
3021.94268	0.03718
3019.88274	0.03718
3017.82279	0.03722
3015.76284	0.03727
3013.70290	0.03726
3011.64295	0.03722
3009.58300	0.03717
3007.52305	0.03710
3005.46311	0.03711
3003.40316	0.03719
3001.34321	0.03724
2999.28326	0.03726
2997.22332	0.03728
2995.16337	0.03727
2993.10342	0.03727
2991.04348	0.03732
2988.98353	0.03732
2986.92358	0.03727
2984.86363	0.03730
2982.80369	0.03737
2980.74374	0.03737
2978.68379	0.03734
2976.62384	0.03735
2974.56390	0.03735
2972.50395	0.03732
2970.44400	0.03734
2968.38406	0.03737
2966.32411	0.03732
2964.26416	0.03725
2962.20421	0.03721
2960.14427	0.03721
2958.08432	0.03719
2956.02437	0.03712
2953.96442	0.03710
2951.90448	0.03715
2949.84453	0.03723
2947.78458	0.03732
2945.72463	0.03745
2943.66469	0.03751
2941.60474	0.03749
2939.54479	0.03754
2937.48485	0.03767
2935.42490	0.03770
2933.36495	0.03767
2931.30500	0.03773
2929.24506	0.03789
2927.18511	0.03802
2925.12516	0.03811
2923.06521	0.03819
2921.00527	0.03827
2918.94532	0.03829
2916.88537	0.03818
2914.82543	0.03795
2912.76548	0.03775
2910.70553	0.03763
2908.64558	0.03749
2906.58564	0.03734
2904.52569	0.03727
2902.46574	0.03729
2900.40579	0.03722
2898.34585	0.03706
2896.28590	0.03689
2894.22595	0.03678
2892.16601	0.03677
2890.10606	0.03677
2888.04611	0.03671
2885.98616	0.03663
2883.92622	0.03656
2881.86627	0.03649
2879.80632	0.03641
2877.74637	0.03632
2875.68643	0.03628
2873.62648	0.03624
2871.56653	0.03620
2869.50658	0.03619
2867.44664	0.03617
2865.38669	0.03617
2863.32674	0.03620
2861.26680	0.03618
2859.20685	0.03613
2857.14690	0.03617
2855.08695	0.03624
2853.02701	0.03633
2850.96706	0.03642
2848.90711	0.03641
2846.84716	0.03627
2844.78722	0.03603
2842.72727	0.03580
2840.66732	0.03564
2838.60738	0.03551
2836.54743	0.03541
2834.48748	0.03533
2832.42753	0.03522
2830.36759	0.03515
2828.30764	0.03511
2826.24769	0.03501
2824.18774	0.03491
2822.12780	0.03488
2820.06785	0.03485
2818.00790	0.03480
2815.94796	0.03478
2813.88801	0.03479
2811.82806	0.03478
2809.76811	0.03470
2807.70817	0.03458
2805.64822	0.03452
2803.58827	0.03449
2801.52832	0.03444
2799.46838	0.03439
2797.40843	0.03433
2795.34848	0.03427
2793.28853	0.03424
2791.22859	0.03423
2789.16864	0.03424
2787.10869	0.03425
2785.04875	0.03420
2782.98880	0.03408
2780.92885	0.03396
2778.86890	0.03391
2776.80896	0.03393
2774.74901	0.03391
2772.68906	0.03385
2770.62911	0.03381
2768.56917	0.03374
2766.50922	0.03366
2764.44927	0.03365
2762.38933	0.03363
2760.32938	0.03360
2758.26943	0.03358
2756.20948	0.03355
2754.14954	0.03350
2752.08959	0.03350
2750.02964	0.03351
2747.96969	0.03349
2745.90975	0.03344
2743.84980	0.03340
2741.78985	0.03337
2739.72991	0.03335
2737.66996	0.03333
2735.61001	0.03331
2733.55006	0.03328
2731.49012	0.03323
2729.43017	0.03318
2727.37022	0.03314
2725.31027	0.03309
2723.25033	0.03304
2721.19038	0.03301
2719.13043	0.03300
2717.07048	0.03300
2715.01054	0.03301
2712.95059	0.03300
2710.89064	0.03292
2708.83070	0.03282
2706.77075	0.03279
2704.71080	0.03278
2702.65085	0.03276
2700.59091	0.03274
2698.53096	0.03270
2696.47101	0.03268
2694.41106	0.03263
2692.35112	0.03253
2690.29117	0.03247
2688.23122	0.03249
2686.17128	0.03252
2684.11133	0.03249
2682.05138	0.03243
2679.99143	0.03242
2677.93149	0.03239
2675.87154	0.03234
2673.81159	0.03232
2671.75164	0.03234
2669.69170	0.03242
2667.63175	0.03255
2665.57180	0.03272
2663.51186	0.03288
2661.45191	0.03296
2659.39196	0.03301
2657.33201	0.03306
2655.27207	0.03308
2653.21212	0.03308
2651.15217	0.03309
2649.09222	0.03307
2647.03228	0.03300
2644.97233	0.03291
2642.91238	0.03281
2640.85243	0.03271
2638.79249	0.03258
2636.73254	0.03243
2634.67259	0.03232
2632.61265	0.03224
2630.55270	0.03218
2628.49275	0.03208
2626.43280	0.03198
2624.37286	0.03189
2622.31291	0.03179
2620.25296	0.03167
2618.19301	0.03157
2616.13307	0.03153
2614.07312	0.03147
2612.01317	0.03137
2609.95323	0.03127
2607.89328	0.03116
2605.83333	0.03101
2603.77338	0.03089
2601.71344	0.03085
2599.65349	0.03083
2597.59354	0.03078
2595.53359	0.03068
2593.47365	0.03055
2591.41370	0.03044
2589.35375	0.03038
2587.29381	0.03031
2585.23386	0.03019
2583.17391	0.03012
2581.11396	0.03010
2579.05402	0.03008
2576.99407	0.03001
2574.93412	0.02994
2572.87417	0.02989
2570.81423	0.02984
2568.75428	0.02979
2566.69433	0.02970
2564.63438	0.02956
2562.57444	0.02952
2560.51449	0.02951
2558.45454	0.02941
2556.39460	0.02925
2554.33465	0.02912
2552.27470	0.02911
2550.21475	0.02915
2548.15481	0.02915
2546.09486	0.02906
2544.03491	0.02893
2541.97496	0.02886
2539.91502	0.02889
2537.85507	0.02898
2535.79512	0.02901
2533.73518	0.02894
2531.67523	0.02885
2529.61528	0.02876
2527.55533	0.02866
2525.49539	0.02859
2523.43544	0.02863
2521.37549	0.02870
2519.31554	0.02870
2517.25560	0.02864
2515.19565	0.02857
2513.13570	0.02847
2511.07576	0.02837
2509.01581	0.02832
2506.95586	0.02831
2504.89591	0.02827
2502.83597	0.02824
2500.77602	0.02829
2498.71607	0.02831
2496.65612	0.02824
2494.59618	0.02816
2492.53623	0.02809
2490.47628	0.02802
2488.41633	0.02796
2486.35639	0.02792
2484.29644	0.02792
2482.23649	0.02793
2480.17655	0.02790
2478.11660	0.02790
2476.05665	0.02797
2473.99670	0.02801
2471.93676	0.02798
2469.87681	0.02789
2467.81686	0.02782
2465.75691	0.02782
2463.69697	0.02784
2461.63702	0.02785
2459.57707	0.02791
2457.51713	0.02799
2455.45718	0.02801
2453.39723	0.02796
2451.33728	0.02791
2449.27734	0.02777
2447.21739	0.02755
2445.15744	0.02743
2443.09749	0.02736
2441.03755	0.02731
2438.97760	0.02729
2436.91765	0.02726
2434.85771	0.02723
2432.79776	0.02720
2430.73781	0.02706
2428.67786	0.02690
2426.61792	0.02680
2424.55797	0.02678
2422.49802	0.02682
2420.43807	0.02685
2418.37813	0.02680
2416.31818	0.02668
2414.25823	0.02655
2412.19828	0.02650
2410.13834	0.02642
2408.07839	0.02621
2406.01844	0.02607
2403.95850	0.02604
2401.89855	0.02600
2399.83860	0.02600
2397.77865	0.02605
2395.71871	0.02603
2393.65876	0.02598
2391.59881	0.02599
2389.53886	0.02597
2387.47892	0.02592
2385.41897	0.02589
2383.35902	0.02588
2381.29908	0.02589
2379.23913	0.02594
2377.17918	0.02602
2375.11923	0.02608
2373.05929	0.02598
2370.99934	0.02579
2368.93939	0.02578
2366.87944	0.02619
2364.81950	0.02680
2362.75955	0.02726
2360.69960	0.02757
2358.63966	0.02763
2356.57971	0.02748
2354.51976	0.02740
2352.45981	0.02736
2350.39987	0.02717
2348.33992	0.02693
2346.27997	0.02689
2344.22002	0.02719
2342.16008	0.02740
2340.10013	0.02732
2338.04018	0.02726
2335.98023	0.02728
2333.92029	0.02723
2331.86034	0.02730
2329.80039	0.02787
2327.74045	0.02913
2325.68050	0.03020
2323.62055	0.03007
2321.56060	0.02923
2319.50066	0.02857
2317.44071	0.02820
2315.38076	0.02797
2313.32081	0.02779
2311.26087	0.02759
2309.20092	0.02742
2307.14097	0.02734
2305.08103	0.02731
2303.02108	0.02727
2300.96113	0.02721
2298.90118	0.02719
2296.84124	0.02733
2294.78129	0.02764
2292.72134	0.02793
2290.66139	0.02813
2288.60145	0.02822
2286.54150	0.02810
2284.48155	0.02773
2282.42161	0.02737
2280.36166	0.02717
2278.30171	0.02699
2276.24176	0.02672
2274.18182	0.02643
2272.12187	0.02618
2270.06192	0.02589
2268.00197	0.02549
2265.94203	0.02519
2263.88208	0.02512
2261.82213	0.02521
2259.76218	0.02540
2257.70224	0.02536
2255.64229	0.02498
2253.58234	0.02464
2251.52240	0.02453
2249.46245	0.02456
2247.40250	0.02470
2245.34255	0.02480
2243.28261	0.02470
2241.22266	0.02456
2239.16271	0.02458
2237.10276	0.02458
2235.04282	0.02443
2232.98287	0.02435
2230.92292	0.02437
2228.86298	0.02426
2226.80303	0.02404
2224.74308	0.02400
2222.68313	0.02407
2220.62319	0.02389
2218.56324	0.02349
2216.50329	0.02326
2214.44334	0.02332
2212.38340	0.02344
2210.32345	0.02357
2208.26350	0.02371
2206.20356	0.02378
2204.14361	0.02373
2202.08366	0.02349
2200.02371	0.02325
2197.96377	0.02326
2195.90382	0.02332
2193.84387	0.02339
2191.78392	0.02362
2189.72398	0.02373
2187.66403	0.02360
2185.60408	0.02316
2183.54413	0.02226
2181.48419	0.02171
2179.42424	0.02175
2177.36429	0.02144
2175.30435	0.02110
2173.24440	0.02169
2171.18445	0.02288
2169.12450	0.02391
2167.06456	0.02455
2165.00461	0.02495
2162.94466	0.02401
2160.88471	0.01983
2158.82477	0.01522
2156.76482	0.01437
2154.70487	0.01557
2152.64493	0.01681
2150.58498	0.01777
2148.52503	0.01803
2146.46508	0.01801
2144.40514	0.01820
2142.34519	0.01841
2140.28524	0.01841
2138.22529	0.01799
2136.16535	0.01725
2134.10540	0.01701
2132.04545	0.01766
2129.98551	0.01861
2127.92556	0.01933
2125.86561	0.01985
2123.80566	0.02033
2121.74572	0.02079
2119.68577	0.02136
2117.62582	0.02206
2115.56587	0.02247
2113.50593	0.02238
2111.44598	0.02223
2109.38603	0.02222
2107.32608	0.02220
2105.26614	0.02217
2103.20619	0.02220
2101.14624	0.02221
2099.08630	0.02199
2097.02635	0.02144
2094.96640	0.02094
2092.90645	0.02097
2090.84651	0.02138
2088.78656	0.02185
2086.72661	0.02220
2084.66666	0.02234
2082.60672	0.02242
2080.54677	0.02249
2078.48682	0.02242
2076.42688	0.02221
2074.36693	0.02203
2072.30698	0.02202
2070.24703	0.02200
2068.18709	0.02185
2066.12714	0.02166
2064.06719	0.02144
2062.00724	0.02141
2059.94730	0.02161
2057.88735	0.02168
2055.82740	0.02174
2053.76746	0.02259
2051.70751	0.02357
2049.64756	0.02303
2047.58761	0.02186
2045.52767	0.02142
2043.46772	0.02128
2041.40777	0.02127
2039.34782	0.02155
2037.28788	0.02163
2035.22793	0.02094
2033.16798	0.02018
2031.10803	0.01989
2029.04809	0.01959
2026.98814	0.01931
2024.92819	0.01949
2022.86825	0.01970
2020.80830	0.01934
2018.74835	0.01890
2016.68840	0.01891
2014.62846	0.01910
2012.56851	0.01917
2010.50856	0.01912
2008.44861	0.01861
2006.38867	0.01794
2004.32872	0.01805
2002.26877	0.01876
2000.20883	0.01944
1998.14888	0.01985
1996.08893	0.02015
1994.02898	0.02062
1991.96904	0.02107
1989.90909	0.02119
1987.84914	0.02136
1985.78919	0.02201
1983.72925	0.02306
1981.66930	0.02365
1979.60935	0.02236
1977.54941	0.01973
1975.48946	0.01818
1973.42951	0.01792
1971.36956	0.01796
1969.30962	0.01804
1967.24967	0.01816
1965.18972	0.01831
1963.12977	0.01822
1961.06983	0.01786
1959.00988	0.01772
1956.94993	0.01795
1954.88998	0.01826
1952.83004	0.01860
1950.77009	0.01878
1948.71014	0.01865
1946.65020	0.01857
1944.59025	0.01866
1942.53030	0.01881
1940.47035	0.01903
1938.41041	0.01925
1936.35046	0.01935
1934.29051	0.01932
1932.23056	0.01926
1930.17062	0.01925
1928.11067	0.01932
1926.05072	0.01943
1923.99078	0.01961
1921.93083	0.01983
1919.87088	0.01990
1917.81093	0.01990
1915.75099	0.02002
1913.69104	0.02016
1911.63109	0.02024
1909.57114	0.02032
1907.51120	0.02037
1905.45125	0.02040
1903.39130	0.02048
1901.33136	0.02058
1899.27141	0.02069
1897.21146	0.02070
1895.15151	0.02061
1893.09157	0.02061
1891.03162	0.02071
1888.97167	0.02094
1886.91172	0.02118
1884.85178	0.02125
1882.79183	0.02120
1880.73188	0.02120
1878.67193	0.02129
1876.61199	0.02135
1874.55204	0.02126
1872.49209	0.02114
1870.43215	0.02120
1868.37220	0.02139
1866.31225	0.02140
1864.25230	0.02133
1862.19236	0.02129
1860.13241	0.02124
1858.07246	0.02115
1856.01251	0.02102
1853.95257	0.02082
1851.89262	0.02061
1849.83267	0.02047
1847.77273	0.02041
1845.71278	0.02037
1843.65283	0.02031
1841.59288	0.02022
1839.53294	0.02020
1837.47299	0.02026
1835.41304	0.02025
1833.35309	0.02022
1831.29315	0.02034
1829.23320	0.02046
1827.17325	0.02039
1825.11331	0.02035
1823.05336	0.02035
1820.99341	0.02016
1818.93346	0.01985
1816.87352	0.01975
1814.81357	0.01995
1812.75362	0.02026
1810.69367	0.02057
1808.63373	0.02075
1806.57378	0.02078
1804.51383	0.02078
1802.45388	0.02086
1800.39394	0.02098
1798.33399	0.02097
1796.27404	0.02091
1794.21410	0.02089
1792.15415	0.02101
1790.09420	0.02113
1788.03425	0.02116
1785.97431	0.02120
1783.91436	0.02121
1781.85441	0.02119
1779.79446	0.02117
1777.73452	0.02109
1775.67457	0.02102
1773.61462	0.02107
1771.55468	0.02121
1769.49473	0.02128
1767.43478	0.02127
1765.37483	0.02125
1763.31489	0.02127
1761.25494	0.02141
1759.19499	0.02150
1757.13504	0.02153
1755.07510	0.02151
1753.01515	0.02150
1750.95520	0.02167
1748.89526	0.02197
1746.83531	0.02209
1744.77536	0.02213
1742.71541	0.02218
1740.65547	0.02226
1738.59552	0.02237
1736.53557	0.02244
1734.47562	0.02261
1732.41568	0.02283
1730.35573	0.02287
1728.29578	0.02290
1726.23583	0.02295
1724.17589	0.02303
1722.11594	0.02317
1720.05599	0.02333
1717.99605	0.02364
1715.93610	0.02398
1713.87615	0.02408
1711.81620	0.02406
1709.75626	0.02407
1707.69631	0.02418
1705.63636	0.02443
1703.57641	0.02458
1701.51647	0.02471
1699.45652	0.02505
1697.39657	0.02530
1695.33663	0.02541
1693.27668	0.02549
1691.21673	0.02564
1689.15678	0.02590
1687.09684	0.02606
1685.03689	0.02630
1682.97694	0.02663
1680.91699	0.02671
1678.85705	0.02674
1676.79710	0.02686
1674.73715	0.02714
1672.67721	0.02737
1670.61726	0.02750
1668.55731	0.02767
1666.49736	0.02773
1664.43742	0.02781
1662.37747	0.02803
1660.31752	0.02823
1658.25757	0.02830
1656.19763	0.02835
1654.13768	0.02861
1652.07773	0.02907
1650.01778	0.02916
1647.95784	0.02922
1645.89789	0.02934
1643.83794	0.02931
1641.77800	0.02927
1639.71805	0.02934
1637.65810	0.02955
1635.59815	0.02982
1633.53821	0.02986
1631.47826	0.02980
1629.41831	0.02986
1627.35836	0.02999
1625.29842	0.03009
1623.23847	0.03018
1621.17852	0.03026
1619.11858	0.03030
1617.05863	0.03040
1614.99868	0.03043
1612.93873	0.03033
1610.87879	0.03027
1608.81884	0.03028
1606.75889	0.03029
1604.69894	0.03028
1602.63900	0.03026
1600.57905	0.03018
1598.51910	0.03010
1596.45916	0.03003
1594.39921	0.02998
1592.33926	0.02990
1590.27931	0.02981
1588.21937	0.02973
1586.15942	0.02962
1584.09947	0.02947
1582.03952	0.02934
1579.97958	0.02923
1577.91963	0.02916
1575.85968	0.02913
1573.79973	0.02904
1571.73979	0.02890
1569.67984	0.02880
1567.61989	0.02867
1565.55995	0.02851
1563.50000	0.02837
1561.44005	0.02828
1559.38010	0.02833
1557.32016	0.02832
1555.26021	0.02812
1553.20026	0.02794
1551.14031	0.02781
1549.08037	0.02774
1547.02042	0.02768
1544.96047	0.02767
1542.90053	0.02769
1540.84058	0.02771
1538.78063	0.02759
1536.72068	0.02742
1534.66074	0.02732
1532.60079	0.02724
1530.54084	0.02714
1528.48089	0.02706
1526.42095	0.02703
1524.36100	0.02698
1522.30105	0.02694
1520.24111	0.02685
1518.18116	0.02668
1516.12121	0.02652
1514.06126	0.02635
1512.00132	0.02623
1509.94137	0.02620
1507.88142	0.02632
1505.82147	0.02628
1503.76153	0.02598
1501.70158	0.02574
1499.64163	0.02559
1497.58168	0.02553
1495.52174	0.02545
1493.46179	0.02537
1491.40184	0.02537
1489.34190	0.02544
1487.28195	0.02541
1485.22200	0.02529
1483.16205	0.02521
1481.10211	0.02524
1479.04216	0.02531
1476.98221	0.02547
1474.92226	0.02578
1472.86232	0.02613
1470.80237	0.02625
1468.74242	0.02627
1466.68248	0.02635
1464.62253	0.02650
1462.56258	0.02658
1460.50263	0.02665
1458.44269	0.02688
1456.38274	0.02720
1454.32279	0.02722
1452.26284	0.02715
1450.20290	0.02711
1448.14295	0.02712
1446.08300	0.02710
1444.02306	0.02705
1441.96311	0.02702
1439.90316	0.02702
1437.84321	0.02710
1435.78327	0.02724
1433.72332	0.02732
1431.66337	0.02738
1429.60342	0.02741
1427.54348	0.02738
1425.48353	0.02737
1423.42358	0.02741
1421.36363	0.02746
1419.30369	0.02756
1417.24374	0.02763
1415.18379	0.02756
1413.12385	0.02749
1411.06390	0.02742
1409.00395	0.02732
1406.94400	0.02721
1404.88406	0.02709
1402.82411	0.02700
1400.76416	0.02699
1398.70421	0.02699
1396.64427	0.02696
1394.58432	0.02692
1392.52437	0.02678
1390.46443	0.02663
1388.40448	0.02658
1386.34453	0.02661
1384.28458	0.02659
1382.22464	0.02656
1380.16469	0.02655
1378.10474	0.02657
1376.04479	0.02660
1373.98485	0.02656
1371.92490	0.02640
1369.86495	0.02626
1367.80501	0.02618
1365.74506	0.02613
1363.68511	0.02606
1361.62516	0.02593
1359.56522	0.02579
1357.50527	0.02567
1355.44532	0.02555
1353.38537	0.02545
1351.32543	0.02540
1349.26548	0.02536
1347.20553	0.02527
1345.14558	0.02520
1343.08564	0.02518
1341.02569	0.02521
1338.96574	0.02524
1336.90580	0.02523
1334.84585	0.02517
1332.78590	0.02511
1330.72595	0.02505
1328.66601	0.02497
1326.60606	0.02492
1324.54611	0.02495
1322.48616	0.02503
1320.42622	0.02510
1318.36627	0.02514
1316.30632	0.02515
1314.24638	0.02516
1312.18643	0.02516
1310.12648	0.02512
1308.06653	0.02513
1306.00659	0.02518
1303.94664	0.02525
1301.88669	0.02533
1299.82674	0.02543
1297.76680	0.02554
1295.70685	0.02566
1293.64690	0.02577
1291.58696	0.02590
1289.52701	0.02607
1287.46706	0.02626
1285.40711	0.02648
1283.34717	0.02672
1281.28722	0.02693
1279.22727	0.02711
1277.16732	0.02730
1275.10738	0.02748
1273.04743	0.02765
1270.98748	0.02783
1268.92753	0.02800
1266.86759	0.02818
1264.80764	0.02838
1262.74769	0.02861
1260.68775	0.02885
1258.62780	0.02905
1256.56785	0.02928
1254.50790	0.02958
1252.44796	0.02995
1250.38801	0.03039
1248.32806	0.03083
1246.26811	0.03121
1244.20817	0.03162
1242.14822	0.03208
1240.08827	0.03252
1238.02833	0.03296
1235.96838	0.03345
1233.90843	0.03401
1231.84848	0.03462
1229.78854	0.03529
1227.72859	0.03603
1225.66864	0.03689
1223.60869	0.03797
1221.54875	0.03925
1219.48880	0.04066
1217.42885	0.04222
1215.36891	0.04386
1213.30896	0.04547
1211.24901	0.04706
1209.18906	0.04866
1207.12912	0.05025
1205.06917	0.05180
1203.00922	0.05333
1200.94927	0.05482
1198.88933	0.05622
1196.82938	0.05755
1194.76943	0.05885
1192.70949	0.06013
1190.64954	0.06140
1188.58959	0.06269
1186.52964	0.06401
1184.46970	0.06539
1182.40975	0.06685
1180.34980	0.06846
1178.28985	0.07024
1176.22991	0.07220
1174.16996	0.07443
1172.11001	0.07696
1170.05006	0.07973
1167.99012	0.08264
1165.93017	0.08552
1163.87022	0.08785
1161.81028	0.08881
1159.75033	0.08811
1157.69038	0.08662
1155.63043	0.08560
1153.57049	0.08560
1151.51054	0.08644
1149.45059	0.08779
1147.39064	0.08939
1145.33070	0.09115
1143.27075	0.09301
1141.21080	0.09497
1139.15086	0.09705
1137.09091	0.09927
1135.03096	0.10163
1132.97101	0.10409
1130.91107	0.10665
1128.85112	0.10932
1126.79117	0.11208
1124.73122	0.11494
1122.67128	0.11788
1120.61133	0.12090
1118.55138	0.12397
1116.49144	0.12703
1114.43149	0.13010
1112.37154	0.13324
1110.31159	0.13657
1108.25165	0.14005
1106.19170	0.14359
1104.13175	0.14718
1102.07180	0.15087
1100.01186	0.15460
1097.95191	0.15831
1095.89196	0.16197
1093.83201	0.16562
1091.77207	0.16925
1089.71212	0.17280
1087.65217	0.17617
1085.59223	0.17917
1083.53228	0.18167
1081.47233	0.18371
1079.41238	0.18533
1077.35244	0.18656
1075.29249	0.18730
1073.23254	0.18754
1071.17259	0.18765
1069.11265	0.18805
1067.05270	0.18883
1064.99275	0.18980
1062.93281	0.19071
1060.87286	0.19133
1058.81291	0.19152
1056.75296	0.19125
1054.69302	0.19062
1052.63307	0.18982
1050.57312	0.18900
1048.51317	0.18820
1046.45323	0.18733
1044.39328	0.18649
1042.33333	0.18576
1040.27339	0.18509
1038.21344	0.18446
1036.15349	0.18382
1034.09354	0.18306
1032.03360	0.18205
1029.97365	0.18090
1027.91370	0.17966
1025.85375	0.17825
1023.79381	0.17672
1021.73386	0.17526
1019.67391	0.17392
1017.61396	0.17270
1015.55402	0.17164
1013.49407	0.17068
1011.43412	0.16974
1009.37418	0.16871
1007.31423	0.16758
1005.25428	0.16632
1003.19433	0.16490
1001.13439	0.16328
999.07444	0.16149
997.01449	0.15969
994.95454	0.15799
992.89460	0.15629
990.83465	0.15459
988.77470	0.15287
986.71476	0.15111
984.65481	0.14941
982.59486	0.14768
980.53491	0.14580
978.47497	0.14383
976.41502	0.14189
974.35507	0.13994
972.29512	0.13793
970.23518	0.13597
968.17523	0.13413
966.11528	0.13235
964.05534	0.13052
961.99539	0.12866
959.93544	0.12685
957.87549	0.12517
955.81555	0.12358
953.75560	0.12195
951.69565	0.12035
949.63570	0.11883
947.57576	0.11734
945.51581	0.11590
943.45586	0.11455
941.39591	0.11325
939.33597	0.11194
937.27602	0.11061
935.21607	0.10922
933.15613	0.10780
931.09618	0.10640
929.03623	0.10500
926.97628	0.10358
924.91634	0.10220
922.85639	0.10093
920.79644	0.09972
918.73649	0.09858
916.67655	0.09746
914.61660	0.09624
912.55665	0.09494
910.49671	0.09358
908.43676	0.09202
906.37681	0.09021
904.31686	0.08831
902.25692	0.08643
900.19697	0.08464
898.13702	0.08295
896.07707	0.08132
894.01713	0.07968
891.95718	0.07799
889.89723	0.07636
887.83729	0.07486
885.77734	0.07340
883.71739	0.07188
881.65744	0.07036
879.59750	0.06889
877.53755	0.06744
875.47760	0.06598
873.41765	0.06456
871.35771	0.06312
869.29776	0.06161
867.23781	0.06015
865.17786	0.05875
863.11792	0.05735
861.05797	0.05606
858.99802	0.05486
856.93808	0.05368
854.87813	0.05253
852.81818	0.05154
850.75823	0.05070
848.69829	0.04990
846.63834	0.04910
844.57839	0.04841
842.51844	0.04791
840.45850	0.04764
838.39855	0.04751
836.33860	0.04742
834.27866	0.04732
832.21871	0.04727
830.15876	0.04740
828.09881	0.04768
826.03887	0.04809
823.97892	0.04877
821.91897	0.04977
819.85902	0.05106
817.79908	0.05284
815.73913	0.05527
813.67918	0.05850
811.61924	0.06308
809.55929	0.06961
807.49934	0.07831
805.43939	0.08890
803.37945	0.10041
801.31950	0.11134
799.25955	0.12019
797.19960	0.12559
795.13966	0.12714
793.07971	0.12608
791.01976	0.12436
788.95981	0.12357
786.89987	0.12482
784.83992	0.12850
782.77997	0.13393
780.72003	0.13950
778.66008	0.14312
776.60013	0.14332
774.54018	0.14032
772.48024	0.13559
770.42029	0.13043
768.36034	0.12544
766.30039	0.12077
764.24045	0.11644
762.18050	0.11242
760.12055	0.10866
758.06061	0.10509
756.00066	0.10173
753.94071	0.09863
751.88076	0.09583
749.82082	0.09330
747.76087	0.09086
745.70092	0.08843
743.64097	0.08618
741.58103	0.08416
739.52108	0.08227
737.46113	0.08052
735.40119	0.07891
733.34124	0.07741
731.28129	0.07609
729.22134	0.07488
727.16140	0.07371
725.10145	0.07252
723.04150	0.07132
720.98155	0.07025
718.92161	0.06938
716.86166	0.06863
714.80171	0.06799
712.74176	0.06765
710.68182	0.06772
708.62187	0.06811
706.56192	0.06901
704.50198	0.07081
702.44203	0.07388
700.38208	0.07882
698.32213	0.08558
696.26219	0.09200
694.20224	0.09474
692.14229	0.09281
690.08234	0.08808
688.02240	0.08286
685.96245	0.07836
683.90250	0.07458
681.84256	0.07131
679.78261	0.06854
677.72266	0.06626
675.66271	0.06440
673.60277	0.06286
671.54282	0.06150
669.48287	0.06008
667.42292	0.05837
665.36298	0.05706
663.30303	0.05607
661.24308	0.05507
659.18314	0.05425
657.12319	0.05371
655.06324	0.05321
653.00329	0.05265
650.94335	0.05222
648.88340	0.05191
646.82345	0.05152
644.76350	0.05099
642.70356	0.05033
640.64361	0.04962
638.58366	0.04891
636.52371	0.04820
634.46377	0.04756
632.40382	0.04710
630.34387	0.04678
628.28393	0.04649
626.22398	0.04621
624.16403	0.04591
622.10408	0.04560
620.04414	0.04534
617.98419	0.04519
615.92424	0.04514
613.86429	0.04514
611.80435	0.04519
609.74440	0.04525
607.68445	0.04534
605.62451	0.04551
603.56456	0.04564
601.50461	0.04565
599.44466	0.04570
597.38472	0.04591
595.32477	0.04622
593.26482	0.04647
591.20487	0.04660
589.14493	0.04677
587.08498	0.04710
585.02503	0.04738
582.96509	0.04751
580.90514	0.04763
578.84519	0.04781
576.78524	0.04792
574.72530	0.04802
572.66535	0.04822
570.60540	0.04847
568.54545	0.04866
566.48551	0.04890
564.42556	0.04914
562.36561	0.04930
560.30566	0.04967
558.24572	0.05046
556.18577	0.05168
554.12582	0.05331
552.06588	0.05532
550.00593	0.05775
547.94598	0.06054
545.88603	0.06394
543.82609	0.06827
541.76614	0.07319
539.70619	0.07816
537.64624	0.08314
535.58630	0.08840
533.52635	0.09384
531.46640	0.09874
529.40646	0.10251
527.34651	0.10565
525.28656	0.10893
523.22661	0.11169
521.16667	0.11344
519.10672	0.11453
517.04677	0.11489
514.98682	0.11437
512.92688	0.11307
510.86693	0.11109
508.80698	0.10901
506.74704	0.10801
504.68709	0.10880
502.62714	0.11147
500.56719	0.11559
498.50725	0.12042
496.44730	0.12577
494.38735	0.13130
492.32740	0.13688
490.26746	0.14232
488.20751	0.14751
486.14756	0.15316
484.08761	0.15967
482.02767	0.16655
479.96772	0.17347
477.90777	0.18055
475.84783	0.18761
473.78788	0.19506
471.72793	0.20310
469.66798	0.21036
467.60804	0.21704
465.54809	0.22346
463.48814	0.22894
461.42819	0.23368
459.36825	0.23743
457.30830	0.23977
455.24835	0.24029
453.18841	0.23899
451.12846	0.23633
449.06851	0.23336
447.00856	0.23038
444.94862	0.22676
442.88867	0.22249
440.82872	0.21852
438.76877	0.21541
436.70883	0.21249
434.64888	0.20927
432.58893	0.20616
430.52899	0.20322
428.46904	0.19967
426.40909	0.19528
424.34914	0.19111
422.28920	0.18734
420.22925	0.18158
418.16930	0.17261
416.10935	0.16541
414.04941	0.15897
411.98946	0.15038
409.92951	0.14038
407.86956	0.13150
405.80962	0.12766
403.74967	0.13204
401.68972	0.14487
399.62978	0.16584
