3996.29776	0.01240
3994.23781	0.01246
3992.17786	0.01255
3990.11791	0.01263
3988.05797	0.01267
3985.99802	0.01260
3983.93807	0.01255
3981.87813	0.01260
3979.81818	0.01262
3977.75823	0.01259
3975.69828	0.01263
3973.63834	0.01260
3971.57839	0.01248
3969.51844	0.01247
3967.45849	0.01249
3965.39855	0.01249
3963.33860	0.01253
3961.27865	0.01264
3959.21870	0.01267
3957.15876	0.01259
3955.09881	0.01245
3953.03886	0.01234
3950.97892	0.01242
3948.91897	0.01264
3946.85902	0.01270
3944.79907	0.01261
3942.73913	0.01255
3940.67918	0.01255
3938.61923	0.01257
3936.55928	0.01255
3934.49934	0.01253
3932.43939	0.01258
3930.37944	0.01262
3928.31950	0.01253
3926.25955	0.01244
3924.19960	0.01251
3922.13965	0.01259
3920.07971	0.01255
3918.01976	0.01251
3915.95981	0.01251
3913.89986	0.01249
3911.83992	0.01243
3909.77997	0.01234
3907.72002	0.01233
3905.66008	0.01244
3903.60013	0.01255
3901.54018	0.01252
3899.48023	0.01246
3897.42029	0.01243
3895.36034	0.01239
3893.30039	0.01237
3891.24044	0.01243
3889.18050	0.01238
3887.12055	0.01229
3885.06060	0.01237
3883.00065	0.01249
3880.94071	0.01260
3878.88076	0.01263
3876.82081	0.01252
3874.76087	0.01248
3872.70092	0.01249
3870.64097	0.01244
3868.58102	0.01241
3866.52108	0.01247
3864.46113	0.01257
3862.40118	0.01261
3860.34123	0.01256
3858.28129	0.01243
3856.22134	0.01227
3854.16139	0.01237
3852.10145	0.01276
3850.04150	0.01276
3847.98155	0.01253
3845.92160	0.01237
3843.86166	0.01240
3841.80171	0.01252
3839.74176	0.01259
3837.68181	0.01269
3835.62187	0.01273
3833.56192	0.01263
3831.50197	0.01251
3829.44203	0.01240
3827.38208	0.01241
3825.32213	0.01247
3823.26218	0.01245
3821.20224	0.01251
3819.14229	0.01261
3817.08234	0.01266
3815.02239	0.01266
3812.96245	0.01248
3810.90250	0.01228
3808.84255	0.01232
3806.78260	0.01255
3804.72266	0.01256
3802.66271	0.01245
3800.60276	0.01245
3798.54282	0.01242
3796.48287	0.01239
3794.42292	0.01231
3792.36297	0.01221
3790.30303	0.01227
3788.24308	0.01236
3786.18313	0.01233
3784.12318	0.01225
3782.06324	0.01223
3780.00329	0.01224
3777.94334	0.01220
3775.88340	0.01217
3773.82345	0.01216
3771.76350	0.01214
3769.70355	0.01219
3767.64361	0.01225
3765.58366	0.01232
3763.52371	0.01232
3761.46376	0.01223
3759.40382	0.01225
3757.34387	0.01229
3755.28392	0.01223
3753.22398	0.01232
3751.16403	0.01266
3749.10408	0.01279
3747.04413	0.01267
3744.98419	0.01271
3742.92424	0.01266
3740.86429	0.01232
3738.80434	0.01206
3736.74440	0.01213
3734.68445	0.01249
3732.62450	0.01270
3730.56455	0.01258
3728.50461	0.01235
3726.44466	0.01219
3724.38471	0.01217
3722.32477	0.01218
3720.26482	0.01212
3718.20487	0.01204
3716.14492	0.01196
3714.08498	0.01196
3712.02503	0.01229
3709.96508	0.01273
3707.90513	0.01271
3705.84519	0.01243
3703.78524	0.01231
3701.72529	0.01248
3699.66535	0.01273
3697.60540	0.01286
3695.54545	0.01291
3693.48550	0.01289
3691.42556	0.01283
3689.36561	0.01286
3687.30566	0.01291
3685.24571	0.01284
3683.18577	0.01276
3681.12582	0.01273
3679.06587	0.01273
3677.00593	0.01288
3674.94598	0.01322
3672.88603	0.01334
3670.82608	0.01332
3668.76614	0.01328
3666.70619	0.01319
3664.64624	0.01316
3662.58629	0.01317
3660.52635	0.01318
3658.46640	0.01327
3656.40645	0.01335
3654.34651	0.01328
3652.28656	0.01323
3650.22661	0.01333
3648.16666	0.01349
3646.10672	0.01354
3644.04677	0.01353
3641.98682	0.01358
3639.92687	0.01370
3637.86693	0.01375
3635.80698	0.01377
3633.74703	0.01384
3631.68708	0.01383
3629.62714	0.01387
3627.56719	0.01400
3625.50724	0.01395
3623.44730	0.01385
3621.38735	0.01385
3619.32740	0.01396
3617.26745	0.01400
3615.20751	0.01398
3613.14756	0.01403
3611.08761	0.01410
3609.02766	0.01411
3606.96772	0.01409
3604.90777	0.01401
3602.84782	0.01386
3600.78788	0.01380
3598.72793	0.01394
3596.66798	0.01414
3594.60803	0.01422
3592.54809	0.01417
3590.48814	0.01408
3588.42819	0.01403
3586.36824	0.01400
3584.30830	0.01391
3582.24835	0.01384
3580.18840	0.01385
3578.12846	0.01388
3576.06851	0.01389
3574.00856	0.01396
3571.94861	0.01410
3569.88867	0.01423
3567.82872	0.01435
3565.76877	0.01432
3563.70882	0.01417
3561.64888	0.01412
3559.58893	0.01415
3557.52898	0.01421
3555.46903	0.01425
3553.40909	0.01428
3551.34914	0.01432
3549.28919	0.01445
3547.22925	0.01464
3545.16930	0.01473
3543.10935	0.01467
3541.04940	0.01459
3538.98946	0.01456
3536.92951	0.01459
3534.86956	0.01459
3532.80961	0.01461
3530.74967	0.01472
3528.68972	0.01484
3526.62977	0.01491
3524.56983	0.01494
3522.50988	0.01486
3520.44993	0.01482
3518.38998	0.01490
3516.33004	0.01497
3514.27009	0.01494
3512.21014	0.01491
3510.15019	0.01500
3508.09025	0.01522
3506.03030	0.01536
3503.97035	0.01532
3501.91041	0.01520
3499.85046	0.01513
3497.79051	0.01512
3495.73056	0.01512
3493.67062	0.01508
3491.61067	0.01506
3489.55072	0.01513
3487.49077	0.01522
3485.43083	0.01528
3483.37088	0.01539
3481.31093	0.01552
3479.25098	0.01557
3477.19104	0.01554
3475.13109	0.01550
3473.07114	0.01551
3471.01120	0.01555
3468.95125	0.01557
3466.89130	0.01559
3464.83135	0.01566
3462.77141	0.01577
3460.71146	0.01582
3458.65151	0.01580
3456.59156	0.01575
3454.53162	0.01575
3452.47167	0.01582
3450.41172	0.01593
3448.35178	0.01599
3446.29183	0.01597
3444.23188	0.01596
3442.17193	0.01601
3440.11199	0.01607
3438.05204	0.01605
3435.99209	0.01595
3433.93214	0.01587
3431.87220	0.01585
3429.81225	0.01587
3427.75230	0.01594
3425.69236	0.01604
3423.63241	0.01612
3421.57246	0.01617
3419.51251	0.01619
3417.45257	0.01622
3415.39262	0.01626
3413.33267	0.01629
3411.27272	0.01633
3409.21278	0.01637
3407.15283	0.01637
3405.09288	0.01636
3403.03293	0.01638
3400.97299	0.01638
3398.91304	0.01637
3396.85309	0.01634
3394.79315	0.01634
3392.73320	0.01638
3390.67325	0.01641
3388.61330	0.01650
3386.55336	0.01657
3384.49341	0.01652
3382.43346	0.01642
3380.37351	0.01638
3378.31357	0.01636
3376.25362	0.01638
3374.19367	0.01646
3372.13373	0.01650
3370.07378	0.01651
3368.01383	0.01654
3365.95388	0.01659
3363.89394	0.01661
3361.83399	0.01661
3359.77404	0.01659
3357.71409	0.01661
3355.65415	0.01667
3353.59420	0.01669
3351.53425	0.01663
3349.47431	0.01660
3347.41436	0.01666
3345.35441	0.01674
3343.29446	0.01679
3341.23452	0.01676
3339.17457	0.01669
3337.11462	0.01669
3335.05467	0.01674
3332.99473	0.01678
3330.93478	0.01681
3328.87483	0.01684
3326.81488	0.01680
3324.75494	0.01676
3322.69499	0.01678
3320.63504	0.01680
3318.57510	0.01682
3316.51515	0.01689
3314.45520	0.01696
3312.39525	0.01693
3310.33531	0.01689
3308.27536	0.01689
3306.21541	0.01687
3304.15546	0.01678
3302.09552	0.01673
3300.03557	0.01677
3297.97562	0.01684
3295.91568	0.01688
3293.85573	0.01695
3291.79578	0.01700
3289.73583	0.01695
3287.67589	0.01687
3285.61594	0.01684
3283.55599	0.01683
3281.49604	0.01680
3279.43610	0.01684
3277.37615	0.01694
3275.31620	0.01705
3273.25626	0.01713
3271.19631	0.01716
3269.13636	0.01712
3267.07641	0.01706
3265.01647	0.01699
3262.95652	0.01695
3260.89657	0.01695
3258.83662	0.01697
3256.77668	0.01699
3254.71673	0.01697
3252.65678	0.01690
3250.59683	0.01686
3248.53689	0.01685
3246.47694	0.01689
3244.41699	0.01693
3242.35705	0.01693
3240.29710	0.01693
3238.23715	0.01692
3236.17720	0.01687
3234.11726	0.01685
3232.05731	0.01685
3229.99736	0.01678
3227.93741	0.01671
3225.87747	0.01670
3223.81752	0.01673
3221.75757	0.01676
3219.69763	0.01678
3217.63768	0.01677
3215.57773	0.01669
3213.51778	0.01664
3211.45784	0.01666
3209.39789	0.01665
3207.33794	0.01665
3205.27799	0.01669
3203.21805	0.01670
3201.15810	0.01670
3199.09815	0.01670
3197.03821	0.01668
3194.97826	0.01665
3192.91831	0.01660
3190.85836	0.01657
3188.79842	0.01658
3186.73847	0.01661
3184.67852	0.01663
3182.61857	0.01662
3180.55863	0.01659
3178.49868	0.01654
3176.43873	0.01647
3174.37878	0.01643
3172.31884	0.01639
3170.25889	0.01637
3168.19894	0.01639
3166.13900	0.01639
3164.07905	0.01632
3162.01910	0.01629
3159.95915	0.01630
3157.89921	0.01628
3155.83926	0.01623
3153.77931	0.01621
3151.71936	0.01623
3149.65942	0.01622
3147.59947	0.01618
3145.53952	0.01619
3143.47958	0.01624
3141.41963	0.01627
3139.35968	0.01620
3137.29973	0.01607
3135.23979	0.01599
3133.17984	0.01597
3131.11989	0.01598
3129.05994	0.01604
3127.00000	0.01607
3124.94005	0.01599
3122.88010	0.01591
3120.82016	0.01589
3118.76021	0.01587
3116.70026	0.01590
3114.64031	0.01597
3112.58037	0.01595
3110.52042	0.01589
3108.46047	0.01592
3106.40052	0.01597
3104.34058	0.01600
3102.28063	0.01601
3100.22068	0.01601
3098.16073	0.01597
3096.10079	0.01595
3094.04084	0.01597
3091.98089	0.01598
3089.92095	0.01594
3087.86100	0.01590
3085.80105	0.01588
3083.74110	0.01588
3081.68116	0.01592
3079.62121	0.01596
3077.56126	0.01598
3075.50131	0.01600
3073.44137	0.01602
3071.38142	0.01595
3069.32147	0.01586
3067.26153	0.01592
3065.20158	0.01599
3063.14163	0.01591
3061.08168	0.01581
3059.02174	0.01580
3056.96179	0.01580
3054.90184	0.01577
3052.84189	0.01574
3050.78195	0.01576
3048.72200	0.01579
3046.66205	0.01578
3044.60211	0.01574
3042.54216	0.01567
3040.48221	0.01562
3038.42226	0.01566
3036.36232	0.01573
3034.30237	0.01572
3032.24242	0.01571
3030.18247	0.01571
3028.12253	0.01562
3026.06258	0.01550
3024.00263	0.01550
3021.94268	0.01558
3019.88274	0.01568
3017.82279	0.01571
3015.76284	0.01567
3013.70290	0.01567
3011.64295	0.01569
3009.58300	0.01563
3007.52305	0.01556
3005.46311	0.01559
3003.40316	0.01565
3001.34321	0.01567
2999.28326	0.01569
2997.22332	0.01575
2995.16337	0.01577
2993.10342	0.01579
2991.04348	0.01585
2988.98353	0.01583
2986.92358	0.01576
2984.86363	0.01575
2982.80369	0.01580
2980.74374	0.01583
2978.68379	0.01583
2976.62384	0.01585
2974.56390	0.01583
2972.50395	0.01580
2970.44400	0.01583
2968.38406	0.01585
2966.32411	0.01579
2964.26416	0.01572
2962.20421	0.01572
2960.14427	0.01579
2958.08432	0.01586
2956.02437	0.01586
2953.96442	0.01582
2951.90448	0.01586
2949.84453	0.01595
2947.78458	0.01601
2945.72463	0.01603
2943.66469	0.01602
2941.60474	0.01602
2939.54479	0.01610
2937.48485	0.01619
2935.42490	0.01621
2933.36495	0.01619
2931.30500	0.01628
2929.24506	0.01645
2927.18511	0.01659
2925.12516	0.01665
2923.06521	0.01668
2921.00527	0.01674
2918.94532	0.01677
2916.88537	0.01667
2914.82543	0.01651
2912.76548	0.01639
2910.70553	0.01633
2908.64558	0.01627
2906.58564	0.01621
2904.52569	0.01616
2902.46574	0.01608
2900.40579	0.01599
2898.34585	0.01593
2896.28590	0.01588
2894.22595	0.01583
2892.16601	0.01579
2890.10606	0.01576
2888.04611	0.01570
2885.98616	0.01565
2883.92622	0.01561
2881.86627	0.01558
2879.80632	0.01555
2877.74637	0.01550
2875.68643	0.01548
2873.62648	0.01549
2871.56653	0.01544
2869.50658	0.01538
2867.44664	0.01541
2865.38669	0.01550
2863.32674	0.01555
2861.26680	0.01552
2859.20685	0.01547
2857.14690	0.01548
2855.08695	0.01556
2853.02701	0.01564
2850.96706	0.01573
2848.90711	0.01574
2846.84716	0.01566
2844.78722	0.01550
2842.72727	0.01536
2840.66732	0.01527
2838.60738	0.01518
2836.54743	0.01511
2834.48748	0.01505
2832.42753	0.01499
2830.36759	0.01496
2828.30764	0.01491
2826.24769	0.01486
2824.18774	0.01482
2822.12780	0.01479
2820.06785	0.01477
2818.00790	0.01480
2815.94796	0.01483
2813.88801	0.01479
2811.82806	0.01471
2809.76811	0.01464
2807.70817	0.01462
2805.64822	0.01462
2803.58827	0.01459
2801.52832	0.01456
2799.46838	0.01455
2797.40843	0.01455
2795.34848	0.01451
2793.28853	0.01446
2791.22859	0.01442
2789.16864	0.01440
2787.10869	0.01440
2785.04875	0.01439
2782.98880	0.01435
2780.92885	0.01433
2778.86890	0.01434
2776.80896	0.01434
2774.74901	0.01427
2772.68906	0.01418
2770.62911	0.01414
2768.56917	0.01411
2766.50922	0.01410
2764.44927	0.01413
2762.38933	0.01416
2760.32938	0.01417
2758.26943	0.01414
2756.20948	0.01410
2754.14954	0.01410
2752.08959	0.01413
2750.02964	0.01413
2747.96969	0.01412
2745.90975	0.01412
2743.84980	0.01411
2741.78985	0.01409
2739.72991	0.01409
2737.66996	0.01410
2735.61001	0.01407
2733.55006	0.01398
2731.49012	0.01392
2729.43017	0.01390
2727.37022	0.01387
2725.31027	0.01384
2723.25033	0.01381
2721.19038	0.01383
2719.13043	0.01389
2717.07048	0.01391
2715.01054	0.01385
2712.95059	0.01382
2710.89064	0.01381
2708.83070	0.01377
2706.77075	0.01374
2704.71080	0.01375
2702.65085	0.01376
2700.59091	0.01377
2698.53096	0.01376
2696.47101	0.01372
2694.41106	0.01365
2692.35112	0.01360
2690.29117	0.01360
2688.23122	0.01362
2686.17128	0.01362
2684.11133	0.01361
2682.05138	0.01362
2679.99143	0.01365
2677.93149	0.01365
2675.87154	0.01365
2673.81159	0.01366
2671.75164	0.01363
2669.69170	0.01360
2667.63175	0.01366
2665.57180	0.01378
2663.51186	0.01390
2661.45191	0.01399
2659.39196	0.01405
2657.33201	0.01410
2655.27207	0.01410
2653.21212	0.01407
2651.15217	0.01410
2649.09222	0.01415
2647.03228	0.01410
2644.97233	0.01403
2642.91238	0.01401
2640.85243	0.01399
2638.79249	0.01393
2636.73254	0.01385
2634.67259	0.01381
2632.61265	0.01378
2630.55270	0.01373
2628.49275	0.01372
2626.43280	0.01371
2624.37286	0.01361
2622.31291	0.01350
2620.25296	0.01344
2618.19301	0.01345
2616.13307	0.01350
2614.07312	0.01352
2612.01317	0.01346
2609.95323	0.01343
2607.89328	0.01344
2605.83333	0.01338
2603.77338	0.01327
2601.71344	0.01321
2599.65349	0.01321
2597.59354	0.01316
2595.53359	0.01309
2593.47365	0.01302
2591.41370	0.01291
2589.35375	0.01287
2587.29381	0.01293
2585.23386	0.01300
2583.17391	0.01301
2581.11396	0.01298
2579.05402	0.01294
2576.99407	0.01283
2574.93412	0.01274
2572.87417	0.01272
2570.81423	0.01274
2568.75428	0.01272
2566.69433	0.01265
2564.63438	0.01259
2562.57444	0.01261
2560.51449	0.01267
2558.45454	0.01272
2556.39460	0.01267
2554.33465	0.01252
2552.27470	0.01240
2550.21475	0.01237
2548.15481	0.01238
2546.09486	0.01237
2544.03491	0.01228
2541.97496	0.01222
2539.91502	0.01225
2537.85507	0.01237
2535.79512	0.01246
2533.73518	0.01242
2531.67523	0.01235
2529.61528	0.01232
2527.55533	0.01231
2525.49539	0.01233
2523.43544	0.01241
2521.37549	0.01248
2519.31554	0.01244
2517.25560	0.01239
2515.19565	0.01239
2513.13570	0.01239
2511.07576	0.01224
2509.01581	0.01205
2506.95586	0.01201
2504.89591	0.01204
2502.83597	0.01199
2500.77602	0.01200
2498.71607	0.01212
2496.65612	0.01222
2494.59618	0.01224
2492.53623	0.01221
2490.47628	0.01214
2488.41633	0.01207
2486.35639	0.01201
2484.29644	0.01200
2482.23649	0.01207
2480.17655	0.01214
2478.11660	0.01211
2476.05665	0.01204
2473.99670	0.01201
2471.93676	0.01200
2469.87681	0.01192
2467.81686	0.01188
2465.75691	0.01194
2463.69697	0.01198
2461.63702	0.01196
2459.57707	0.01199
2457.51713	0.01209
2455.45718	0.01215
2453.39723	0.01214
2451.33728	0.01214
2449.27734	0.01212
2447.21739	0.01197
2445.15744	0.01180
2443.09749	0.01171
2441.03755	0.01175
2438.97760	0.01183
2436.91765	0.01179
2434.85771	0.01172
2432.79776	0.01172
2430.73781	0.01170
2428.67786	0.01162
2426.61792	0.01158
2424.55797	0.01163
2422.49802	0.01168
2420.43807	0.01166
2418.37813	0.01159
2416.31818	0.01153
2414.25823	0.01144
2412.19828	0.01135
2410.13834	0.01128
2408.07839	0.01124
2406.01844	0.01124
2403.95850	0.01122
2401.89855	0.01116
2399.83860	0.01114
2397.77865	0.01113
2395.71871	0.01110
2393.65876	0.01114
2391.59881	0.01121
2389.53886	0.01119
2387.47892	0.01109
2385.41897	0.01103
2383.35902	0.01104
2381.29908	0.01109
2379.23913	0.01117
2377.17918	0.01128
2375.11923	0.01135
2373.05929	0.01129
2370.99934	0.01117
2368.93939	0.01117
2366.87944	0.01145
2364.81950	0.01188
2362.75955	0.01226
2360.69960	0.01246
2358.63966	0.01248
2356.57971	0.01236
2354.51976	0.01219
2352.45981	0.01207
2350.39987	0.01193
2348.33992	0.01175
2346.27997	0.01183
2344.22002	0.01217
2342.16008	0.01226
2340.10013	0.01206
2338.04018	0.01195
2335.98023	0.01196
2333.92029	0.01199
2331.86034	0.01207
2329.80039	0.01234
2327.74045	0.01298
2325.68050	0.01370
2323.62055	0.01384
2321.56060	0.01343
2319.50066	0.01298
2317.44071	0.01275
2315.38076	0.01271
2313.32081	0.01269
2311.26087	0.01257
2309.20092	0.01243
2307.14097	0.01241
2305.08103	0.01240
2303.02108	0.01240
2300.96113	0.01238
2298.90118	0.01230
2296.84124	0.01234
2294.78129	0.01253
2292.72134	0.01272
2290.66139	0.01283
2288.60145	0.01282
2286.54150	0.01270
2284.48155	0.01252
2282.42161	0.01237
2280.36166	0.01220
2278.30171	0.01198
2276.24176	0.01190
2274.18182	0.01192
2272.12187	0.01192
2270.06192	0.01190
2268.00197	0.01176
2265.94203	0.01152
2263.88208	0.01136
2261.82213	0.01141
2259.76218	0.01153
2257.70224	0.01152
2255.64229	0.01134
2253.58234	0.01106
2251.52240	0.01077
2249.46245	0.01068
2247.40250	0.01088
2245.34255	0.01112
2243.28261	0.01115
2241.22266	0.01106
2239.16271	0.01100
2237.10276	0.01087
2235.04282	0.01067
2232.98287	0.01070
2230.92292	0.01095
2228.86298	0.01096
2226.80303	0.01074
2224.74308	0.01073
2222.68313	0.01086
2220.62319	0.01077
2218.56324	0.01043
2216.50329	0.01014
2214.44334	0.01000
2212.38340	0.01008
2210.32345	0.01038
2208.26350	0.01059
2206.20356	0.01069
2204.14361	0.01080
2202.08366	0.01063
2200.02371	0.01033
2197.96377	0.01028
2195.90382	0.01029
2193.84387	0.01023
2191.78392	0.01032
2189.72398	0.01045
2187.66403	0.01045
2185.60408	0.01027
2183.54413	0.00970
2181.48419	0.00935
2179.42424	0.00959
2177.36429	0.00958
2175.30435	0.00934
2173.24440	0.00959
2171.18445	0.01012
2169.12450	0.01047
2167.06456	0.01077
2165.00461	0.01116
2162.94466	0.01092
2160.88471	0.00892
2158.82477	0.00634
2156.76482	0.00550
2154.70487	0.00584
2152.64493	0.00645
2150.58498	0.00715
2148.52503	0.00750
2146.46508	0.00762
2144.40514	0.00777
2142.34519	0.00780
2140.28524	0.00783
2138.22529	0.00780
2136.16535	0.00745
2134.10540	0.00710
2132.04545	0.00730
2129.98551	0.00785
2127.92556	0.00828
2125.86561	0.00851
2123.80566	0.00874
2121.74572	0.00911
2119.68577	0.00963
2117.62582	0.01014
2115.56587	0.01035
2113.50593	0.01027
2111.44598	0.01024
2109.38603	0.01027
2107.32608	0.01017
2105.26614	0.01004
2103.20619	0.01000
2101.14624	0.01000
2099.08630	0.01000
2097.02635	0.00989
2094.96640	0.00957
2092.90645	0.00942
2090.84651	0.00957
2088.78656	0.00982
2086.72661	0.01015
2084.66666	0.01044
2082.60672	0.01051
2080.54677	0.01050
2078.48682	0.01059
2076.42688	0.01062
2074.36693	0.01055
2072.30698	0.01057
2070.24703	0.01048
2068.18709	0.01025
2066.12714	0.01013
2064.06719	0.01007
2062.00724	0.01003
2059.94730	0.01016
2057.88735	0.01035
2055.82740	0.01038
2053.76746	0.01061
2051.70751	0.01105
2049.64756	0.01077
2047.58761	0.01008
2045.52767	0.00991
2043.46772	0.01008
2041.40777	0.01024
2039.34782	0.01038
2037.28788	0.01044
2035.22793	0.01038
2033.16798	0.01029
2031.10803	0.00990
2029.04809	0.00921
2026.98814	0.00883
2024.92819	0.00900
2022.86825	0.00929
2020.80830	0.00928
2018.74835	0.00903
2016.68840	0.00868
2014.62846	0.00842
2012.56851	0.00851
2010.50856	0.00883
2008.44861	0.00882
2006.38867	0.00853
2004.32872	0.00869
2002.26877	0.00927
2000.20883	0.00962
1998.14888	0.00947
1996.08893	0.00942
1994.02898	0.00998
1991.96904	0.01056
1989.90909	0.01065
1987.84914	0.01068
1985.78919	0.01085
1983.72925	0.01122
1981.66930	0.01161
1979.60935	0.01109
1977.54941	0.00978
1975.48946	0.00899
1973.42951	0.00872
1971.36956	0.00860
1969.30962	0.00867
1967.24967	0.00871
1965.18972	0.00872
1963.12977	0.00884
1961.06983	0.00882
1959.00988	0.00870
1956.94993	0.00890
1954.88998	0.00923
1952.83004	0.00932
1950.77009	0.00917
1948.71014	0.00890
1946.65020	0.00869
1944.59025	0.00871
1942.53030	0.00889
1940.47035	0.00896
1938.41041	0.00896
1936.35046	0.00900
1934.29051	0.00902
1932.23056	0.00907
1930.17062	0.00918
1928.11067	0.00925
1926.05072	0.00923
1923.99078	0.00925
1921.93083	0.00930
1919.87088	0.00932
1917.81093	0.00939
1915.75099	0.00953
1913.69104	0.00957
1911.63109	0.00953
1909.57114	0.00954
1907.51120	0.00961
1905.45125	0.00975
1903.39130	0.00993
1901.33136	0.00998
1899.27141	0.00998
1897.21146	0.01000
1895.15151	0.01001
1893.09157	0.01002
1891.03162	0.01007
1888.97167	0.01020
1886.91172	0.01031
1884.85178	0.01033
1882.79183	0.01033
1880.73188	0.01040
1878.67193	0.01045
1876.61199	0.01040
1874.55204	0.01034
1872.49209	0.01035
1870.43215	0.01048
1868.37220	0.01059
1866.31225	0.01047
1864.25230	0.01036
1862.19236	0.01035
1860.13241	0.01036
1858.07246	0.01039
1856.01251	0.01036
1853.95257	0.01023
1851.89262	0.01011
1849.83267	0.01001
1847.77273	0.00994
1845.71278	0.00990
1843.65283	0.00985
1841.59288	0.00982
1839.53294	0.00986
1837.47299	0.00990
1835.41304	0.00985
1833.35309	0.00977
1831.29315	0.00981
1829.23320	0.00995
1827.17325	0.00996
1825.11331	0.00993
1823.05336	0.00991
1820.99341	0.00979
1818.93346	0.00962
1816.87352	0.00956
1814.81357	0.00967
1812.75362	0.00986
1810.69367	0.01004
1808.63373	0.01013
1806.57378	0.01014
1804.51383	0.01016
1802.45388	0.01023
1800.39394	0.01035
1798.33399	0.01039
1796.27404	0.01035
1794.21410	0.01037
1792.15415	0.01049
1790.09420	0.01054
1788.03425	0.01049
1785.97431	0.01049
1783.91436	0.01051
1781.85441	0.01050
1779.79446	0.01051
1777.73452	0.01049
1775.67457	0.01042
1773.61462	0.01043
1771.55468	0.01058
1769.49473	0.01067
1767.43478	0.01066
1765.37483	0.01064
1763.31489	0.01069
1761.25494	0.01080
1759.19499	0.01086
1757.13504	0.01089
1755.07510	0.01088
1753.01515	0.01091
1750.95520	0.01110
1748.89526	0.01133
1746.83531	0.01137
1744.77536	0.01137
1742.71541	0.01142
1740.65547	0.01153
1738.59552	0.01164
1736.53557	0.01170
1734.47562	0.01188
1732.41568	0.01209
1730.35573	0.01206
1728.29578	0.01202
1726.23583	0.01203
1724.17589	0.01209
1722.11594	0.01216
1720.05599	0.01226
1717.99605	0.01252
1715.93610	0.01285
1713.87615	0.01292
1711.81620	0.01288
1709.75626	0.01289
1707.69631	0.01304
1705.63636	0.01328
1703.57641	0.01339
1701.51647	0.01353
1699.45652	0.01387
1697.39657	0.01408
1695.33663	0.01414
1693.27668	0.01416
1691.21673	0.01426
1689.15678	0.01445
1687.09684	0.01456
1685.03689	0.01471
1682.97694	0.01500
1680.91699	0.01511
1678.85705	0.01521
1676.79710	0.01541
1674.73715	0.01569
1672.67721	0.01589
1670.61726	0.01605
1668.55731	0.01621
1666.49736	0.01625
1664.43742	0.01630
1662.37747	0.01650
1660.31752	0.01668
1658.25757	0.01680
1656.19763	0.01695
1654.13768	0.01724
1652.07773	0.01755
1650.01778	0.01763
1647.95784	0.01778
1645.89789	0.01793
1643.83794	0.01790
1641.77800	0.01789
1639.71805	0.01797
1637.65810	0.01815
1635.59815	0.01841
1633.53821	0.01847
1631.47826	0.01842
1629.41831	0.01848
1627.35836	0.01862
1625.29842	0.01872
1623.23847	0.01877
1621.17852	0.01880
1619.11858	0.01885
1617.05863	0.01897
1614.99868	0.01901
1612.93873	0.01896
1610.87879	0.01897
1608.81884	0.01901
1606.75889	0.01901
1604.69894	0.01901
1602.63900	0.01902
1600.57905	0.01902
1598.51910	0.01901
1596.45916	0.01902
1594.39921	0.01905
1592.33926	0.01901
1590.27931	0.01891
1588.21937	0.01883
1586.15942	0.01877
1584.09947	0.01872
1582.03952	0.01869
1579.97958	0.01866
1577.91963	0.01865
1575.85968	0.01865
1573.79973	0.01851
1571.73979	0.01832
1569.67984	0.01819
1567.61989	0.01810
1565.55995	0.01801
1563.50000	0.01792
1561.44005	0.01787
1559.38010	0.01791
1557.32016	0.01786
1555.26021	0.01766
1553.20026	0.01747
1551.14031	0.01736
1549.08037	0.01728
1547.02042	0.01721
1544.96047	0.01716
1542.90053	0.01715
1540.84058	0.01718
1538.78063	0.01705
1536.72068	0.01681
1534.66074	0.01667
1532.60079	0.01659
1530.54084	0.01644
1528.48089	0.01634
1526.42095	0.01631
1524.36100	0.01626
1522.30105	0.01622
1520.24111	0.01618
1518.18116	0.01608
1516.12121	0.01597
1514.06126	0.01586
1512.00132	0.01578
1509.94137	0.01577
1507.88142	0.01588
1505.82147	0.01578
1503.76153	0.01546
1501.70158	0.01525
1499.64163	0.01518
1497.58168	0.01520
1495.52174	0.01516
1493.46179	0.01505
1491.40184	0.01504
1489.34190	0.01519
1487.28195	0.01525
1485.22200	0.01517
1483.16205	0.01512
1481.10211	0.01515
1479.04216	0.01524
1476.98221	0.01539
1474.92226	0.01567
1472.86232	0.01605
1470.80237	0.01625
1468.74242	0.01624
1466.68248	0.01626
1464.62253	0.01640
1462.56258	0.01651
1460.50263	0.01660
1458.44269	0.01687
1456.38274	0.01717
1454.32279	0.01713
1452.26284	0.01701
1450.20290	0.01696
1448.14295	0.01700
1446.08300	0.01703
1444.02306	0.01699
1441.96311	0.01693
1439.90316	0.01693
1437.84321	0.01708
1435.78327	0.01728
1433.72332	0.01732
1431.66337	0.01729
1429.60342	0.01728
1427.54348	0.01727
1425.48353	0.01731
1423.42358	0.01740
1421.36363	0.01746
1419.30369	0.01751
1417.24374	0.01749
1415.18379	0.01738
1413.12385	0.01732
1411.06390	0.01729
1409.00395	0.01720
1406.94400	0.01712
1404.88406	0.01709
1402.82411	0.01707
1400.76416	0.01707
1398.70421	0.01708
1396.64427	0.01705
1394.58432	0.01703
1392.52437	0.01695
1390.46443	0.01683
1388.40448	0.01678
1386.34453	0.01679
1384.28458	0.01676
1382.22464	0.01672
1380.16469	0.01672
1378.10474	0.01674
1376.04479	0.01677
1373.98485	0.01674
1371.92490	0.01660
1369.86495	0.01648
1367.80501	0.01640
1365.74506	0.01634
1363.68511	0.01632
1361.62516	0.01626
1359.56522	0.01614
1357.50527	0.01604
1355.44532	0.01596
1353.38537	0.01587
1351.32543	0.01578
1349.26548	0.01568
1347.20553	0.01559
1345.14558	0.01554
1343.08564	0.01550
1341.02569	0.01553
1338.96574	0.01559
1336.90580	0.01555
1334.84585	0.01549
1332.78590	0.01545
1330.72595	0.01541
1328.66601	0.01535
1326.60606	0.01530
1324.54611	0.01528
1322.48616	0.01529
1320.42622	0.01531
1318.36627	0.01532
1316.30632	0.01534
1314.24638	0.01537
1312.18643	0.01536
1310.12648	0.01529
1308.06653	0.01523
1306.00659	0.01523
1303.94664	0.01528
1301.88669	0.01536
1299.82674	0.01541
1297.76680	0.01543
1295.70685	0.01548
1293.64690	0.01558
1291.58696	0.01569
1289.52701	0.01581
1287.46706	0.01594
1285.40711	0.01606
1283.34717	0.01618
1281.28722	0.01632
1279.22727	0.01645
1277.16732	0.01657
1275.10738	0.01670
1273.04743	0.01684
1270.98748	0.01698
1268.92753	0.01713
1266.86759	0.01726
1264.80764	0.01740
1262.74769	0.01756
1260.68775	0.01770
1258.62780	0.01782
1256.56785	0.01796
1254.50790	0.01815
1252.44796	0.01844
1250.38801	0.01881
1248.32806	0.01915
1246.26811	0.01944
1244.20817	0.01974
1242.14822	0.02006
1240.08827	0.02039
1238.02833	0.02074
1235.96838	0.02115
1233.90843	0.02160
1231.84848	0.02207
1229.78854	0.02258
1227.72859	0.02318
1225.66864	0.02392
1223.60869	0.02480
1221.54875	0.02577
1219.48880	0.02687
1217.42885	0.02815
1215.36891	0.02952
1213.30896	0.03088
1211.24901	0.03222
1209.18906	0.03355
1207.12912	0.03482
1205.06917	0.03604
1203.00922	0.03723
1200.94927	0.03835
1198.88933	0.03933
1196.82938	0.04024
1194.76943	0.04115
1192.70949	0.04203
1190.64954	0.04286
1188.58959	0.04363
1186.52964	0.04441
1184.46970	0.04525
1182.40975	0.04615
1180.34980	0.04713
1178.28985	0.04821
1176.22991	0.04946
1174.16996	0.05094
1172.11001	0.05266
1170.05006	0.05454
1167.99012	0.05646
1165.93017	0.05828
1163.87022	0.05966
1161.81028	0.06001
1159.75033	0.05933
1157.69038	0.05841
1155.63043	0.05805
1153.57049	0.05845
1151.51054	0.05941
1149.45059	0.06066
1147.39064	0.06203
1145.33070	0.06348
1143.27075	0.06502
1141.21080	0.06663
1139.15086	0.06829
1137.09091	0.07004
1135.03096	0.07191
1132.97101	0.07386
1130.91107	0.07589
1128.85112	0.07802
1126.79117	0.08022
1124.73122	0.08244
1122.67128	0.08473
1120.61133	0.08717
1118.55138	0.08970
1116.49144	0.09219
1114.43149	0.09461
1112.37154	0.09709
1110.31159	0.09966
1108.25165	0.10225
1106.19170	0.10487
1104.13175	0.10754
1102.07180	0.11018
1100.01186	0.11285
1097.95191	0.11557
1095.89196	0.11821
1093.83201	0.12064
1091.77207	0.12288
1089.71212	0.12499
1087.65217	0.12687
1085.59223	0.12837
1083.53228	0.12938
1081.47233	0.12992
1079.41238	0.13004
1077.35244	0.12968
1075.29249	0.12879
1073.23254	0.12752
1071.17259	0.12623
1069.11265	0.12522
1067.05270	0.12456
1064.99275	0.12408
1062.93281	0.12355
1060.87286	0.12279
1058.81291	0.12179
1056.75296	0.12060
1054.69302	0.11930
1052.63307	0.11802
1050.57312	0.11689
1048.51317	0.11585
1046.45323	0.11488
1044.39328	0.11415
1042.33333	0.11368
1040.27339	0.11329
1038.21344	0.11283
1036.15349	0.11229
1034.09354	0.11172
1032.03360	0.11099
1029.97365	0.11003
1027.91370	0.10895
1025.85375	0.10785
1023.79381	0.10676
1021.73386	0.10576
1019.67391	0.10485
1017.61396	0.10401
1015.55402	0.10329
1013.49407	0.10263
1011.43412	0.10201
1009.37418	0.10137
1007.31423	0.10060
1005.25428	0.09968
1003.19433	0.09865
1001.13439	0.09746
999.07444	0.09618
997.01449	0.09496
994.95454	0.09375
992.89460	0.09253
990.83465	0.09137
988.77470	0.09021
986.71476	0.08903
984.65481	0.08785
982.59486	0.08663
980.53491	0.08537
978.47497	0.08412
976.41502	0.08289
974.35507	0.08168
972.29512	0.08044
970.23518	0.07922
968.17523	0.07812
966.11528	0.07704
964.05534	0.07593
961.99539	0.07482
959.93544	0.07375
957.87549	0.07279
955.81555	0.07195
953.75560	0.07111
951.69565	0.07022
949.63570	0.06941
947.57576	0.06868
945.51581	0.06792
943.45586	0.06722
941.39591	0.06666
939.33597	0.06608
937.27602	0.06541
935.21607	0.06473
933.15613	0.06400
931.09618	0.06332
929.03623	0.06277
926.97628	0.06225
924.91634	0.06171
922.85639	0.06117
920.79644	0.06060
918.73649	0.06012
916.67655	0.05973
914.61660	0.05929
912.55665	0.05873
910.49671	0.05803
908.43676	0.05719
906.37681	0.05621
904.31686	0.05511
902.25692	0.05408
900.19697	0.05315
898.13702	0.05226
896.07707	0.05139
894.01713	0.05049
891.95718	0.04959
889.89723	0.04879
887.83729	0.04806
885.77734	0.04730
883.71739	0.04657
881.65744	0.04588
879.59750	0.04513
877.53755	0.04429
875.47760	0.04350
873.41765	0.04276
871.35771	0.04202
869.29776	0.04124
867.23781	0.04049
865.17786	0.03976
863.11792	0.03902
861.05797	0.03825
858.99802	0.03750
856.93808	0.03684
854.87813	0.03623
852.81818	0.03563
850.75823	0.03505
848.69829	0.03450
846.63834	0.03397
844.57839	0.03343
842.51844	0.03298
840.45850	0.03271
838.39855	0.03253
836.33860	0.03231
834.27866	0.03209
832.21871	0.03192
830.15876	0.03191
828.09881	0.03203
826.03887	0.03215
823.97892	0.03232
821.91897	0.03264
819.85902	0.03315
817.79908	0.03392
815.73913	0.03513
813.67918	0.03700
811.61924	0.03984
809.55929	0.04409
807.49934	0.04999
805.43939	0.05723
803.37945	0.06491
801.31950	0.07181
799.25955	0.07676
797.19960	0.07877
795.13966	0.07793
793.07971	0.07571
791.01976	0.07360
788.95981	0.07254
786.89987	0.07320
784.83992	0.07577
782.77997	0.07956
780.72003	0.08313
778.66008	0.08490
776.60013	0.08412
774.54018	0.08129
772.48024	0.07768
770.42029	0.07433
768.36034	0.07153
766.30039	0.06912
764.24045	0.06702
762.18050	0.06522
760.12055	0.06358
758.06061	0.06196
756.00066	0.06041
753.94071	0.05909
751.88076	0.05793
749.82082	0.05678
747.76087	0.05571
745.70092	0.05475
743.64097	0.05371
741.58103	0.05265
739.52108	0.05171
737.46113	0.05087
735.40119	0.05010
733.34124	0.04943
731.28129	0.04877
729.22134	0.04813
727.16140	0.04761
725.10145	0.04715
723.04150	0.04666
720.98155	0.04616
718.92161	0.04568
716.86166	0.04519
714.80171	0.04477
712.74176	0.04453
710.68182	0.04445
708.62187	0.04456
706.56192	0.04492
704.50198	0.04569
702.44203	0.04731
700.38208	0.05024
698.32213	0.05438
696.26219	0.05838
694.20224	0.06016
692.14229	0.05914
690.08234	0.05660
688.02240	0.05396
685.96245	0.05169
683.90250	0.04975
681.84256	0.04815
679.78261	0.04682
677.72266	0.04575
675.66271	0.04490
673.60277	0.04412
671.54282	0.04355
669.48287	0.04309
667.42292	0.04225
665.36298	0.04136
663.30303	0.04076
661.24308	0.04025
659.18314	0.03989
657.12319	0.03969
655.06324	0.03955
653.00329	0.03943
650.94335	0.03930
648.88340	0.03909
646.82345	0.03881
644.76350	0.03851
642.70356	0.03816
640.64361	0.03783
638.58366	0.03753
636.52371	0.03727
634.46377	0.03709
632.40382	0.03688
630.34387	0.03654
628.28393	0.03627
626.22398	0.03614
624.16403	0.03608
622.10408	0.03615
620.04414	0.03630
617.98419	0.03638
615.92424	0.03641
613.86429	0.03640
611.80435	0.03640
609.74440	0.03652
607.68445	0.03675
605.62451	0.03705
603.56456	0.03737
601.50461	0.03759
599.44466	0.03770
597.38472	0.03782
595.32477	0.03794
593.26482	0.03811
591.20487	0.03837
589.14493	0.03864
587.08498	0.03890
585.02503	0.03910
582.96509	0.03929
580.90514	0.03945
578.84519	0.03964
576.78524	0.03992
574.72530	0.04022
572.66535	0.04048
570.60540	0.04080
568.54545	0.04121
566.48551	0.04175
564.42556	0.04223
562.36561	0.04263
560.30566	0.04317
558.24572	0.04386
556.18577	0.04467
554.12582	0.04567
552.06588	0.04698
550.00593	0.04864
547.94598	0.05056
545.88603	0.05285
543.82609	0.05567
541.76614	0.05891
539.70619	0.06243
537.64624	0.06613
535.58630	0.06995
533.52635	0.07377
531.46640	0.07729
529.40646	0.08028
527.34651	0.08301
525.28656	0.08568
523.22661	0.08768
521.16667	0.08882
519.10672	0.08922
517.04677	0.08893
514.98682	0.08821
512.92688	0.08701
510.86693	0.08527
508.80698	0.08357
506.74704	0.08287
504.68709	0.08369
502.62714	0.08591
500.56719	0.08895
498.50725	0.09236
496.44730	0.09629
494.38735	0.10058
492.32740	0.10505
490.26746	0.10953
488.20751	0.11387
486.14756	0.11831
484.08761	0.12327
482.02767	0.12876
479.96772	0.13431
477.90777	0.13968
475.84783	0.14498
473.78788	0.15064
471.72793	0.15646
469.66798	0.16118
467.60804	0.16510
465.54809	0.16877
463.48814	0.17137
461.42819	0.17277
459.36825	0.17332
457.30830	0.17211
455.24835	0.16887
453.18841	0.16460
451.12846	0.15995
449.06851	0.15568
447.00856	0.15208
444.94862	0.14905
442.88867	0.14578
440.82872	0.14199
438.76877	0.13861
436.70883	0.13615
434.64888	0.13435
432.58893	0.13263
430.52899	0.13072
428.46904	0.12850
426.40909	0.12594
424.34914	0.12363
422.28920	0.12180
420.22925	0.11929
418.16930	0.11505
416.10935	0.11112
414.04941	0.10768
411.98946	0.10321
409.92951	0.09741
407.86956	0.09163
405.80962	0.08903
403.74967	0.09289
401.68972	0.10346
399.62978	0.11904
