3996.29776	0.01353
3994.23781	0.01352
3992.17786	0.01357
3990.11791	0.01364
3988.05797	0.01365
3985.99802	0.01353
3983.93807	0.01345
3981.87813	0.01351
3979.81818	0.01359
3977.75823	0.01368
3975.69828	0.01375
3973.63834	0.01371
3971.57839	0.01360
3969.51844	0.01354
3967.45849	0.01351
3965.39855	0.01351
3963.33860	0.01356
3961.27865	0.01362
3959.21870	0.01365
3957.15876	0.01357
3955.09881	0.01342
3953.03886	0.01333
3950.97892	0.01338
3948.91897	0.01348
3946.85902	0.01354
3944.79907	0.01358
3942.73913	0.01360
3940.67918	0.01359
3938.61923	0.01360
3936.55928	0.01362
3934.49934	0.01363
3932.43939	0.01360
3930.37944	0.01351
3928.31950	0.01347
3926.25955	0.01347
3924.19960	0.01345
3922.13965	0.01344
3920.07971	0.01340
3918.01976	0.01328
3915.95981	0.01320
3913.89986	0.01327
3911.83992	0.01337
3909.77997	0.01340
3907.72002	0.01345
3905.66008	0.01348
3903.60013	0.01330
3901.54018	0.01304
3899.48023	0.01299
3897.42029	0.01315
3895.36034	0.01335
3893.30039	0.01347
3891.24044	0.01343
3889.18050	0.01332
3887.12055	0.01323
3885.06060	0.01320
3883.00065	0.01326
3880.94071	0.01330
3878.88076	0.01329
3876.82081	0.01335
3874.76087	0.01340
3872.70092	0.01340
3870.64097	0.01335
3868.58102	0.01330
3866.52108	0.01333
3864.46113	0.01330
3862.40118	0.01316
3860.34123	0.01316
3858.28129	0.01334
3856.22134	0.01350
3854.16139	0.01341
3852.10145	0.01319
3850.04150	0.01317
3847.98155	0.01324
3845.92160	0.01329
3843.86166	0.01327
3841.80171	0.01318
3839.74176	0.01313
3837.68181	0.01317
3835.62187	0.01316
3833.56192	0.01316
3831.50197	0.01318
3829.44203	0.01317
3827.38208	0.01322
3825.32213	0.01336
3823.26218	0.01351
3821.20224	0.01354
3819.14229	0.01341
3817.08234	0.01328
3815.02239	0.01315
3812.96245	0.01308
3810.90250	0.01313
3808.84255	0.01330
3806.78260	0.01347
3804.72266	0.01344
3802.66271	0.01330
3800.60276	0.01313
3798.54282	0.01307
3796.48287	0.01305
3794.42292	0.01298
3792.36297	0.01298
3790.30303	0.01311
3788.24308	0.01318
3786.18313	0.01309
3784.12318	0.01301
3782.06324	0.01302
3780.00329	0.01297
3777.94334	0.01288
3775.88340	0.01298
3773.82345	0.01312
3771.76350	0.01309
3769.70355	0.01297
3767.64361	0.01295
3765.58366	0.01303
3763.52371	0.01303
3761.46376	0.01296
3759.40382	0.01291
3757.34387	0.01286
3755.28392	0.01291
3753.22398	0.01303
3751.16403	0.01302
3749.10408	0.01300
3747.04413	0.01317
3744.98419	0.01317
3742.92424	0.01281
3740.86429	0.01253
3738.80434	0.01250
3736.74440	0.01262
3734.68445	0.01279
3732.62450	0.01290
3730.56455	0.01286
3728.50461	0.01269
3726.44466	0.01254
3724.38471	0.01254
3722.32477	0.01263
3720.26482	0.01261
3718.20487	0.01253
3716.14492	0.01258
3714.08498	0.01277
3712.02503	0.01294
3709.96508	0.01295
3707.90513	0.01285
3705.84519	0.01282
3703.78524	0.01297
3701.72529	0.01321
3699.66535	0.01335
3697.60540	0.01337
3695.54545	0.01341
3693.48550	0.01353
3691.42556	0.01363
3689.36561	0.01358
3687.30566	0.01340
3685.24571	0.01333
3683.18577	0.01338
3681.12582	0.01342
3679.06587	0.01347
3677.00593	0.01358
3674.94598	0.01351
3672.88603	0.01336
3670.82608	0.01332
3668.76614	0.01329
3666.70619	0.01332
3664.64624	0.01340
3662.58629	0.01352
3660.52635	0.01370
3658.46640	0.01390
3656.40645	0.01398
3654.34651	0.01393
3652.28656	0.01395
3650.22661	0.01402
3648.16666	0.01396
3646.10672	0.01393
3644.04677	0.01400
3641.98682	0.01415
3639.92687	0.01433
3637.86693	0.01445
3635.80698	0.01448
3633.74703	0.01445
3631.68708	0.01444
3629.62714	0.01444
3627.56719	0.01440
3625.50724	0.01450
3623.44730	0.01469
3621.38735	0.01479
3619.32740	0.01471
3617.26745	0.01456
3615.20751	0.01464
3613.14756	0.01484
3611.08761	0.01498
3609.02766	0.01499
3606.96772	0.01486
3604.90777	0.01473
3602.84782	0.01470
3600.78788	0.01477
3598.72793	0.01489
3596.66798	0.01493
3594.60803	0.01482
3592.54809	0.01479
3590.48814	0.01498
3588.42819	0.01517
3586.36824	0.01500
3584.30830	0.01475
3582.24835	0.01473
3580.18840	0.01484
3578.12846	0.01495
3576.06851	0.01504
3574.00856	0.01512
3571.94861	0.01527
3569.88867	0.01539
3567.82872	0.01531
3565.76877	0.01514
3563.70882	0.01514
3561.64888	0.01523
3559.58893	0.01531
3557.52898	0.01540
3555.46903	0.01547
3553.40909	0.01546
3551.34914	0.01547
3549.28919	0.01561
3547.22925	0.01575
3545.16930	0.01575
3543.10935	0.01574
3541.04940	0.01583
3538.98946	0.01595
3536.92951	0.01597
3534.86956	0.01586
3532.80961	0.01592
3530.74967	0.01611
3528.68972	0.01623
3526.62977	0.01629
3524.56983	0.01632
3522.50988	0.01622
3520.44993	0.01612
3518.38998	0.01620
3516.33004	0.01632
3514.27009	0.01637
3512.21014	0.01638
3510.15019	0.01647
3508.09025	0.01663
3506.03030	0.01674
3503.97035	0.01673
3501.91041	0.01662
3499.85046	0.01658
3497.79051	0.01666
3495.73056	0.01672
3493.67062	0.01667
3491.61067	0.01664
3489.55072	0.01667
3487.49077	0.01669
3485.43083	0.01679
3483.37088	0.01698
3481.31093	0.01706
3479.25098	0.01702
3477.19104	0.01706
3475.13109	0.01713
3473.07114	0.01714
3471.01120	0.01713
3468.95125	0.01715
3466.89130	0.01718
3464.83135	0.01723
3462.77141	0.01731
3460.71146	0.01740
3458.65151	0.01747
3456.59156	0.01754
3454.53162	0.01759
3452.47167	0.01760
3450.41172	0.01761
3448.35178	0.01763
3446.29183	0.01763
3444.23188	0.01763
3442.17193	0.01765
3440.11199	0.01767
3438.05204	0.01766
3435.99209	0.01761
3433.93214	0.01760
3431.87220	0.01765
3429.81225	0.01770
3427.75230	0.01774
3425.69236	0.01783
3423.63241	0.01793
3421.57246	0.01793
3419.51251	0.01792
3417.45257	0.01799
3415.39262	0.01806
3413.33267	0.01815
3411.27272	0.01824
3409.21278	0.01827
3407.15283	0.01819
3405.09288	0.01812
3403.03293	0.01814
3400.97299	0.01821
3398.91304	0.01825
3396.85309	0.01827
3394.79315	0.01828
3392.73320	0.01823
3390.67325	0.01818
3388.61330	0.01825
3386.55336	0.01833
3384.49341	0.01832
3382.43346	0.01831
3380.37351	0.01836
3378.31357	0.01840
3376.25362	0.01843
3374.19367	0.01849
3372.13373	0.01850
3370.07378	0.01848
3368.01383	0.01852
3365.95388	0.01855
3363.89394	0.01848
3361.83399	0.01841
3359.77404	0.01843
3357.71409	0.01847
3355.65415	0.01850
3353.59420	0.01854
3351.53425	0.01854
3349.47431	0.01851
3347.41436	0.01854
3345.35441	0.01863
3343.29446	0.01869
3341.23452	0.01869
3339.17457	0.01871
3337.11462	0.01876
3335.05467	0.01880
3332.99473	0.01886
3330.93478	0.01890
3328.87483	0.01882
3326.81488	0.01866
3324.75494	0.01863
3322.69499	0.01879
3320.63504	0.01887
3318.57510	0.01885
3316.51515	0.01893
3314.45520	0.01899
3312.39525	0.01893
3310.33531	0.01888
3308.27536	0.01895
3306.21541	0.01904
3304.15546	0.01901
3302.09552	0.01888
3300.03557	0.01881
3297.97562	0.01882
3295.91568	0.01888
3293.85573	0.01896
3291.79578	0.01903
3289.73583	0.01904
3287.67589	0.01898
3285.61594	0.01891
3283.55599	0.01886
3281.49604	0.01885
3279.43610	0.01895
3277.37615	0.01908
3275.31620	0.01914
3273.25626	0.01913
3271.19631	0.01911
3269.13636	0.01909
3267.07641	0.01905
3265.01647	0.01903
3262.95652	0.01910
3260.89657	0.01914
3258.83662	0.01914
3256.77668	0.01913
3254.71673	0.01908
3252.65678	0.01903
3250.59683	0.01901
3248.53689	0.01903
3246.47694	0.01905
3244.41699	0.01903
3242.35705	0.01903
3240.29710	0.01906
3238.23715	0.01899
3236.17720	0.01890
3234.11726	0.01892
3232.05731	0.01895
3229.99736	0.01894
3227.93741	0.01890
3225.87747	0.01885
3223.81752	0.01885
3221.75757	0.01892
3219.69763	0.01897
3217.63768	0.01893
3215.57773	0.01882
3213.51778	0.01879
3211.45784	0.01886
3209.39789	0.01890
3207.33794	0.01887
3205.27799	0.01881
3203.21805	0.01872
3201.15810	0.01870
3199.09815	0.01877
3197.03821	0.01884
3194.97826	0.01886
3192.91831	0.01879
3190.85836	0.01870
3188.79842	0.01862
3186.73847	0.01858
3184.67852	0.01861
3182.61857	0.01863
3180.55863	0.01862
3178.49868	0.01862
3176.43873	0.01865
3174.37878	0.01865
3172.31884	0.01853
3170.25889	0.01834
3168.19894	0.01830
3166.13900	0.01837
3164.07905	0.01842
3162.01910	0.01848
3159.95915	0.01855
3157.89921	0.01856
3155.83926	0.01844
3153.77931	0.01830
3151.71936	0.01823
3149.65942	0.01818
3147.59947	0.01815
3145.53952	0.01817
3143.47958	0.01818
3141.41963	0.01816
3139.35968	0.01814
3137.29973	0.01812
3135.23979	0.01804
3133.17984	0.01794
3131.11989	0.01787
3129.05994	0.01790
3127.00000	0.01796
3124.94005	0.01797
3122.88010	0.01796
3120.82016	0.01794
3118.76021	0.01789
3116.70026	0.01783
3114.64031	0.01781
3112.58037	0.01781
3110.52042	0.01786
3108.46047	0.01791
3106.40052	0.01788
3104.34058	0.01786
3102.28063	0.01789
3100.22068	0.01793
3098.16073	0.01792
3096.10079	0.01787
3094.04084	0.01784
3091.98089	0.01787
3089.92095	0.01791
3087.86100	0.01787
3085.80105	0.01780
3083.74110	0.01779
3081.68116	0.01780
3079.62121	0.01776
3077.56126	0.01770
3075.50131	0.01770
3073.44137	0.01774
3071.38142	0.01777
3069.32147	0.01777
3067.26153	0.01779
3065.20158	0.01779
3063.14163	0.01770
3061.08168	0.01763
3059.02174	0.01766
3056.96179	0.01770
3054.90184	0.01769
3052.84189	0.01768
3050.78195	0.01768
3048.72200	0.01766
3046.66205	0.01762
3044.60211	0.01760
3042.54216	0.01757
3040.48221	0.01755
3038.42226	0.01759
3036.36232	0.01762
3034.30237	0.01756
3032.24242	0.01746
3030.18247	0.01745
3028.12253	0.01747
3026.06258	0.01745
3024.00263	0.01745
3021.94268	0.01745
3019.88274	0.01744
3017.82279	0.01741
3015.76284	0.01736
3013.70290	0.01731
3011.64295	0.01729
3009.58300	0.01728
3007.52305	0.01724
3005.46311	0.01723
3003.40316	0.01721
3001.34321	0.01715
2999.28326	0.01713
2997.22332	0.01715
2995.16337	0.01716
2993.10342	0.01723
2991.04348	0.01725
2988.98353	0.01715
2986.92358	0.01706
2984.86363	0.01708
2982.80369	0.01716
2980.74374	0.01721
2978.68379	0.01722
2976.62384	0.01727
2974.56390	0.01731
2972.50395	0.01728
2970.44400	0.01726
2968.38406	0.01725
2966.32411	0.01724
2964.26416	0.01726
2962.20421	0.01729
2960.14427	0.01732
2958.08432	0.01735
2956.02437	0.01736
2953.96442	0.01738
2951.90448	0.01742
2949.84453	0.01751
2947.78458	0.01761
2945.72463	0.01768
2943.66469	0.01770
2941.60474	0.01770
2939.54479	0.01774
2937.48485	0.01782
2935.42490	0.01792
2933.36495	0.01802
2931.30500	0.01815
2929.24506	0.01832
2927.18511	0.01841
2925.12516	0.01845
2923.06521	0.01850
2921.00527	0.01857
2918.94532	0.01860
2916.88537	0.01855
2914.82543	0.01839
2912.76548	0.01819
2910.70553	0.01805
2908.64558	0.01799
2906.58564	0.01793
2904.52569	0.01787
2902.46574	0.01782
2900.40579	0.01775
2898.34585	0.01764
2896.28590	0.01753
2894.22595	0.01748
2892.16601	0.01749
2890.10606	0.01751
2888.04611	0.01747
2885.98616	0.01741
2883.92622	0.01738
2881.86627	0.01737
2879.80632	0.01733
2877.74637	0.01729
2875.68643	0.01726
2873.62648	0.01723
2871.56653	0.01720
2869.50658	0.01718
2867.44664	0.01717
2865.38669	0.01721
2863.32674	0.01729
2861.26680	0.01731
2859.20685	0.01726
2857.14690	0.01730
2855.08695	0.01743
2853.02701	0.01756
2850.96706	0.01767
2848.90711	0.01769
2846.84716	0.01756
2844.78722	0.01736
2842.72727	0.01721
2840.66732	0.01709
2838.60738	0.01697
2836.54743	0.01687
2834.48748	0.01680
2832.42753	0.01677
2830.36759	0.01679
2828.30764	0.01680
2826.24769	0.01670
2824.18774	0.01661
2822.12780	0.01662
2820.06785	0.01664
2818.00790	0.01660
2815.94796	0.01652
2813.88801	0.01645
2811.82806	0.01644
2809.76811	0.01644
2807.70817	0.01641
2805.64822	0.01637
2803.58827	0.01631
2801.52832	0.01624
2799.46838	0.01624
2797.40843	0.01628
2795.34848	0.01626
2793.28853	0.01616
2791.22859	0.01606
2789.16864	0.01607
2787.10869	0.01614
2785.04875	0.01616
2782.98880	0.01611
2780.92885	0.01606
2778.86890	0.01601
2776.80896	0.01598
2774.74901	0.01597
2772.68906	0.01598
2770.62911	0.01595
2768.56917	0.01587
2766.50922	0.01587
2764.44927	0.01591
2762.38933	0.01589
2760.32938	0.01586
2758.26943	0.01587
2756.20948	0.01587
2754.14954	0.01585
2752.08959	0.01583
2750.02964	0.01579
2747.96969	0.01575
2745.90975	0.01574
2743.84980	0.01574
2741.78985	0.01573
2739.72991	0.01572
2737.66996	0.01571
2735.61001	0.01566
2733.55006	0.01560
2731.49012	0.01559
2729.43017	0.01560
2727.37022	0.01558
2725.31027	0.01555
2723.25033	0.01551
2721.19038	0.01547
2719.13043	0.01549
2717.07048	0.01552
2715.01054	0.01554
2712.95059	0.01553
2710.89064	0.01552
2708.83070	0.01551
2706.77075	0.01546
2704.71080	0.01537
2702.65085	0.01529
2700.59091	0.01524
2698.53096	0.01525
2696.47101	0.01530
2694.41106	0.01529
2692.35112	0.01524
2690.29117	0.01522
2688.23122	0.01524
2686.17128	0.01523
2684.11133	0.01518
2682.05138	0.01518
2679.99143	0.01521
2677.93149	0.01522
2675.87154	0.01524
2673.81159	0.01523
2671.75164	0.01519
2669.69170	0.01521
2667.63175	0.01530
2665.57180	0.01541
2663.51186	0.01551
2661.45191	0.01555
2659.39196	0.01558
2657.33201	0.01564
2655.27207	0.01568
2653.21212	0.01567
2651.15217	0.01564
2649.09222	0.01563
2647.03228	0.01559
2644.97233	0.01553
2642.91238	0.01552
2640.85243	0.01549
2638.79249	0.01540
2636.73254	0.01531
2634.67259	0.01524
2632.61265	0.01520
2630.55270	0.01519
2628.49275	0.01515
2626.43280	0.01509
2624.37286	0.01503
2622.31291	0.01494
2620.25296	0.01486
2618.19301	0.01482
2616.13307	0.01480
2614.07312	0.01479
2612.01317	0.01476
2609.95323	0.01470
2607.89328	0.01463
2605.83333	0.01457
2603.77338	0.01454
2601.71344	0.01452
2599.65349	0.01452
2597.59354	0.01451
2595.53359	0.01446
2593.47365	0.01438
2591.41370	0.01427
2589.35375	0.01418
2587.29381	0.01415
2585.23386	0.01419
2583.17391	0.01427
2581.11396	0.01431
2579.05402	0.01420
2576.99407	0.01405
2574.93412	0.01405
2572.87417	0.01413
2570.81423	0.01414
2568.75428	0.01411
2566.69433	0.01405
2564.63438	0.01398
2562.57444	0.01397
2560.51449	0.01398
2558.45454	0.01391
2556.39460	0.01376
2554.33465	0.01363
2552.27470	0.01363
2550.21475	0.01371
2548.15481	0.01373
2546.09486	0.01366
2544.03491	0.01357
2541.97496	0.01353
2539.91502	0.01360
2537.85507	0.01376
2535.79512	0.01379
2533.73518	0.01369
2531.67523	0.01362
2529.61528	0.01359
2527.55533	0.01355
2525.49539	0.01354
2523.43544	0.01353
2521.37549	0.01347
2519.31554	0.01343
2517.25560	0.01347
2515.19565	0.01348
2513.13570	0.01343
2511.07576	0.01335
2509.01581	0.01327
2506.95586	0.01327
2504.89591	0.01327
2502.83597	0.01326
2500.77602	0.01334
2498.71607	0.01345
2496.65612	0.01344
2494.59618	0.01341
2492.53623	0.01341
2490.47628	0.01337
2488.41633	0.01326
2486.35639	0.01315
2484.29644	0.01312
2482.23649	0.01314
2480.17655	0.01313
2478.11660	0.01314
2476.05665	0.01319
2473.99670	0.01319
2471.93676	0.01317
2469.87681	0.01318
2467.81686	0.01320
2465.75691	0.01319
2463.69697	0.01317
2461.63702	0.01320
2459.57707	0.01326
2457.51713	0.01337
2455.45718	0.01347
2453.39723	0.01341
2451.33728	0.01324
2449.27734	0.01310
2447.21739	0.01303
2445.15744	0.01305
2443.09749	0.01300
2441.03755	0.01296
2438.97760	0.01296
2436.91765	0.01295
2434.85771	0.01298
2432.79776	0.01300
2430.73781	0.01291
2428.67786	0.01281
2426.61792	0.01276
2424.55797	0.01271
2422.49802	0.01266
2420.43807	0.01268
2418.37813	0.01269
2416.31818	0.01256
2414.25823	0.01241
2412.19828	0.01239
2410.13834	0.01242
2408.07839	0.01242
2406.01844	0.01243
2403.95850	0.01243
2401.89855	0.01241
2399.83860	0.01240
2397.77865	0.01236
2395.71871	0.01231
2393.65876	0.01234
2391.59881	0.01242
2389.53886	0.01244
2387.47892	0.01240
2385.41897	0.01233
2383.35902	0.01227
2381.29908	0.01227
2379.23913	0.01227
2377.17918	0.01223
2375.11923	0.01213
2373.05929	0.01196
2370.99934	0.01182
2368.93939	0.01182
2366.87944	0.01189
2364.81950	0.01201
2362.75955	0.01218
2360.69960	0.01228
2358.63966	0.01233
2356.57971	0.01234
2354.51976	0.01237
2352.45981	0.01248
2350.39987	0.01255
2348.33992	0.01256
2346.27997	0.01259
2344.22002	0.01264
2342.16008	0.01258
2340.10013	0.01240
2338.04018	0.01228
2335.98023	0.01235
2333.92029	0.01250
2331.86034	0.01266
2329.80039	0.01299
2327.74045	0.01371
2325.68050	0.01443
2323.62055	0.01449
2321.56060	0.01407
2319.50066	0.01367
2317.44071	0.01341
2315.38076	0.01338
2313.32081	0.01343
2311.26087	0.01345
2309.20092	0.01344
2307.14097	0.01341
2305.08103	0.01332
2303.02108	0.01321
2300.96113	0.01317
2298.90118	0.01320
2296.84124	0.01333
2294.78129	0.01352
2292.72134	0.01368
2290.66139	0.01381
2288.60145	0.01389
2286.54150	0.01389
2284.48155	0.01377
2282.42161	0.01355
2280.36166	0.01329
2278.30171	0.01309
2276.24176	0.01299
2274.18182	0.01294
2272.12187	0.01282
2270.06192	0.01266
2268.00197	0.01246
2265.94203	0.01223
2263.88208	0.01214
2261.82213	0.01225
2259.76218	0.01249
2257.70224	0.01253
2255.64229	0.01221
2253.58234	0.01183
2251.52240	0.01166
2249.46245	0.01176
2247.40250	0.01198
2245.34255	0.01215
2243.28261	0.01209
2241.22266	0.01188
2239.16271	0.01183
2237.10276	0.01191
2235.04282	0.01191
2232.98287	0.01193
2230.92292	0.01204
2228.86298	0.01205
2226.80303	0.01196
2224.74308	0.01192
2222.68313	0.01194
2220.62319	0.01176
2218.56324	0.01136
2216.50329	0.01114
2214.44334	0.01131
2212.38340	0.01153
2210.32345	0.01162
2208.26350	0.01167
2206.20356	0.01173
2204.14361	0.01179
2202.08366	0.01171
2200.02371	0.01145
2197.96377	0.01119
2195.90382	0.01112
2193.84387	0.01129
2191.78392	0.01150
2189.72398	0.01161
2187.66403	0.01158
2185.60408	0.01131
2183.54413	0.01081
2181.48419	0.01050
2179.42424	0.01052
2177.36429	0.01036
2175.30435	0.01017
2173.24440	0.01049
2171.18445	0.01108
2169.12450	0.01153
2167.06456	0.01181
2165.00461	0.01206
2162.94466	0.01186
2160.88471	0.00987
2158.82477	0.00694
2156.76482	0.00622
2154.70487	0.00715
2152.64493	0.00780
2150.58498	0.00801
2148.52503	0.00813
2146.46508	0.00829
2144.40514	0.00842
2142.34519	0.00853
2140.28524	0.00871
2138.22529	0.00864
2136.16535	0.00817
2134.10540	0.00785
2132.04545	0.00809
2129.98551	0.00869
2127.92556	0.00929
2125.86561	0.00970
2123.80566	0.00995
2121.74572	0.01021
2119.68577	0.01057
2117.62582	0.01093
2115.56587	0.01110
2113.50593	0.01113
2111.44598	0.01121
2109.38603	0.01128
2107.32608	0.01114
2105.26614	0.01089
2103.20619	0.01085
2101.14624	0.01095
2099.08630	0.01093
2097.02635	0.01071
2094.96640	0.01045
2092.90645	0.01049
2090.84651	0.01076
2088.78656	0.01098
2086.72661	0.01107
2084.66666	0.01114
2082.60672	0.01131
2080.54677	0.01153
2078.48682	0.01160
2076.42688	0.01148
2074.36693	0.01139
2072.30698	0.01144
2070.24703	0.01140
2068.18709	0.01117
2066.12714	0.01092
2064.06719	0.01073
2062.00724	0.01078
2059.94730	0.01102
2057.88735	0.01122
2055.82740	0.01129
2053.76746	0.01161
2051.70751	0.01213
2049.64756	0.01194
2047.58761	0.01130
2045.52767	0.01091
2043.46772	0.01066
2041.40777	0.01068
2039.34782	0.01096
2037.28788	0.01100
2035.22793	0.01063
2033.16798	0.01019
2031.10803	0.00984
2029.04809	0.00955
2026.98814	0.00954
2024.92819	0.00977
2022.86825	0.00984
2020.80830	0.00972
2018.74835	0.00971
2016.68840	0.00962
2014.62846	0.00926
2012.56851	0.00905
2010.50856	0.00927
2008.44861	0.00930
2006.38867	0.00893
2004.32872	0.00892
2002.26877	0.00928
2000.20883	0.00962
1998.14888	0.00988
1996.08893	0.01016
1994.02898	0.01046
1991.96904	0.01066
1989.90909	0.01069
1987.84914	0.01074
1985.78919	0.01105
1983.72925	0.01175
1981.66930	0.01240
1979.60935	0.01182
1977.54941	0.01018
1975.48946	0.00917
1973.42951	0.00904
1971.36956	0.00901
1969.30962	0.00892
1967.24967	0.00894
1965.18972	0.00910
1963.12977	0.00921
1961.06983	0.00911
1959.00988	0.00898
1956.94993	0.00904
1954.88998	0.00924
1952.83004	0.00948
1950.77009	0.00958
1948.71014	0.00946
1946.65020	0.00929
1944.59025	0.00936
1942.53030	0.00967
1940.47035	0.00985
1938.41041	0.00994
1936.35046	0.01002
1934.29051	0.00998
1932.23056	0.00987
1930.17062	0.00988
1928.11067	0.01003
1926.05072	0.01014
1923.99078	0.01016
1921.93083	0.01021
1919.87088	0.01037
1917.81093	0.01050
1915.75099	0.01056
1913.69104	0.01065
1911.63109	0.01073
1909.57114	0.01079
1907.51120	0.01085
1905.45125	0.01088
1903.39130	0.01093
1901.33136	0.01098
1899.27141	0.01098
1897.21146	0.01091
1895.15151	0.01083
1893.09157	0.01087
1891.03162	0.01097
1888.97167	0.01102
1886.91172	0.01115
1884.85178	0.01130
1882.79183	0.01138
1880.73188	0.01140
1878.67193	0.01138
1876.61199	0.01139
1874.55204	0.01137
1872.49209	0.01136
1870.43215	0.01141
1868.37220	0.01141
1866.31225	0.01129
1864.25230	0.01125
1862.19236	0.01133
1860.13241	0.01140
1858.07246	0.01135
1856.01251	0.01125
1853.95257	0.01122
1851.89262	0.01117
1849.83267	0.01101
1847.77273	0.01090
1845.71278	0.01086
1843.65283	0.01081
1841.59288	0.01080
1839.53294	0.01088
1837.47299	0.01099
1835.41304	0.01102
1833.35309	0.01096
1831.29315	0.01096
1829.23320	0.01101
1827.17325	0.01098
1825.11331	0.01095
1823.05336	0.01097
1820.99341	0.01088
1818.93346	0.01065
1816.87352	0.01054
1814.81357	0.01065
1812.75362	0.01084
1810.69367	0.01102
1808.63373	0.01118
1806.57378	0.01128
1804.51383	0.01133
1802.45388	0.01134
1800.39394	0.01137
1798.33399	0.01138
1796.27404	0.01138
1794.21410	0.01140
1792.15415	0.01144
1790.09420	0.01152
1788.03425	0.01160
1785.97431	0.01165
1783.91436	0.01166
1781.85441	0.01165
1779.79446	0.01163
1777.73452	0.01165
1775.67457	0.01170
1773.61462	0.01172
1771.55468	0.01168
1769.49473	0.01168
1767.43478	0.01173
1765.37483	0.01179
1763.31489	0.01187
1761.25494	0.01196
1759.19499	0.01203
1757.13504	0.01207
1755.07510	0.01210
1753.01515	0.01219
1750.95520	0.01234
1748.89526	0.01245
1746.83531	0.01251
1744.77536	0.01260
1742.71541	0.01271
1740.65547	0.01283
1738.59552	0.01300
1736.53557	0.01316
1734.47562	0.01324
1732.41568	0.01327
1730.35573	0.01336
1728.29578	0.01343
1726.23583	0.01351
1724.17589	0.01366
1722.11594	0.01386
1720.05599	0.01407
1717.99605	0.01425
1715.93610	0.01432
1713.87615	0.01438
1711.81620	0.01448
1709.75626	0.01462
1707.69631	0.01480
1705.63636	0.01497
1703.57641	0.01513
1701.51647	0.01535
1699.45652	0.01554
1697.39657	0.01564
1695.33663	0.01575
1693.27668	0.01597
1691.21673	0.01627
1689.15678	0.01655
1687.09684	0.01676
1685.03689	0.01691
1682.97694	0.01699
1680.91699	0.01724
1678.85705	0.01758
1676.79710	0.01786
1674.73715	0.01808
1672.67721	0.01832
1670.61726	0.01857
1668.55731	0.01870
1666.49736	0.01884
1664.43742	0.01904
1662.37747	0.01924
1660.31752	0.01949
1658.25757	0.01983
1656.19763	0.02020
1654.13768	0.02040
1652.07773	0.02035
1650.01778	0.02056
1647.95784	0.02082
1645.89789	0.02084
1643.83794	0.02088
1641.77800	0.02107
1639.71805	0.02131
1637.65810	0.02153
1635.59815	0.02152
1633.53821	0.02148
1631.47826	0.02165
1629.41831	0.02186
1627.35836	0.02199
1625.29842	0.02205
1623.23847	0.02205
1621.17852	0.02209
1619.11858	0.02224
1617.05863	0.02228
1614.99868	0.02220
1612.93873	0.02225
1610.87879	0.02234
1608.81884	0.02237
1606.75889	0.02240
1604.69894	0.02243
1602.63900	0.02243
1600.57905	0.02242
1598.51910	0.02246
1596.45916	0.02253
1594.39921	0.02255
1592.33926	0.02250
1590.27931	0.02243
1588.21937	0.02238
1586.15942	0.02234
1584.09947	0.02229
1582.03952	0.02221
1579.97958	0.02216
1577.91963	0.02211
1575.85968	0.02186
1573.79973	0.02172
1571.73979	0.02174
1569.67984	0.02157
1567.61989	0.02132
1565.55995	0.02126
1563.50000	0.02125
1561.44005	0.02126
1559.38010	0.02106
1557.32016	0.02067
1555.26021	0.02062
1553.20026	0.02058
1551.14031	0.02050
1549.08037	0.02042
1547.02042	0.02045
1544.96047	0.02051
1542.90053	0.02045
1540.84058	0.02015
1538.78063	0.01977
1536.72068	0.01974
1534.66074	0.01974
1532.60079	0.01959
1530.54084	0.01953
1528.48089	0.01955
1526.42095	0.01946
1524.36100	0.01933
1522.30105	0.01918
1520.24111	0.01897
1518.18116	0.01888
1516.12121	0.01884
1514.06126	0.01880
1512.00132	0.01882
1509.94137	0.01890
1507.88142	0.01886
1505.82147	0.01844
1503.76153	0.01827
1501.70158	0.01832
1499.64163	0.01834
1497.58168	0.01824
1495.52174	0.01807
1493.46179	0.01800
1491.40184	0.01800
1489.34190	0.01793
1487.28195	0.01786
1485.22200	0.01785
1483.16205	0.01787
1481.10211	0.01793
1479.04216	0.01806
1476.98221	0.01828
1474.92226	0.01854
1472.86232	0.01876
1470.80237	0.01893
1468.74242	0.01916
1466.68248	0.01939
1464.62253	0.01954
1462.56258	0.01969
1460.50263	0.01994
1458.44269	0.02018
1456.38274	0.02013
1454.32279	0.02007
1452.26284	0.02019
1450.20290	0.02030
1448.14295	0.02031
1446.08300	0.02029
1444.02306	0.02029
1441.96311	0.02028
1439.90316	0.02031
1437.84321	0.02037
1435.78327	0.02040
1433.72332	0.02044
1431.66337	0.02051
1429.60342	0.02053
1427.54348	0.02055
1425.48353	0.02064
1423.42358	0.02080
1421.36363	0.02096
1419.30369	0.02099
1417.24374	0.02090
1415.18379	0.02084
1413.12385	0.02082
1411.06390	0.02077
1409.00395	0.02073
1406.94400	0.02070
1404.88406	0.02060
1402.82411	0.02049
1400.76416	0.02043
1398.70421	0.02034
1396.64427	0.02021
1394.58432	0.02008
1392.52437	0.02004
1390.46443	0.02006
1388.40448	0.02007
1386.34453	0.02004
1384.28458	0.02002
1382.22464	0.02003
1380.16469	0.02007
1378.10474	0.02012
1376.04479	0.02013
1373.98485	0.02001
1371.92490	0.01989
1369.86495	0.01983
1367.80501	0.01978
1365.74506	0.01975
1363.68511	0.01969
1361.62516	0.01958
1359.56522	0.01952
1357.50527	0.01946
1355.44532	0.01934
1353.38537	0.01923
1351.32543	0.01920
1349.26548	0.01912
1347.20553	0.01899
1345.14558	0.01892
1343.08564	0.01889
1341.02569	0.01887
1338.96574	0.01882
1336.90580	0.01877
1334.84585	0.01876
1332.78590	0.01876
1330.72595	0.01870
1328.66601	0.01859
1326.60606	0.01852
1324.54611	0.01852
1322.48616	0.01853
1320.42622	0.01855
1318.36627	0.01856
1316.30632	0.01857
1314.24638	0.01857
1312.18643	0.01855
1310.12648	0.01850
1308.06653	0.01847
1306.00659	0.01846
1303.94664	0.01850
1301.88669	0.01857
1299.82674	0.01862
1297.76680	0.01865
1295.70685	0.01870
1293.64690	0.01875
1291.58696	0.01883
1289.52701	0.01897
1287.46706	0.01913
1285.40711	0.01928
1283.34717	0.01942
1281.28722	0.01958
1279.22727	0.01975
1277.16732	0.01992
1275.10738	0.02009
1273.04743	0.02028
1270.98748	0.02045
1268.92753	0.02058
1266.86759	0.02072
1264.80764	0.02086
1262.74769	0.02101
1260.68775	0.02115
1258.62780	0.02126
1256.56785	0.02143
1254.50790	0.02168
1252.44796	0.02197
1250.38801	0.02231
1248.32806	0.02266
1246.26811	0.02302
1244.20817	0.02338
1242.14822	0.02372
1240.08827	0.02405
1238.02833	0.02441
1235.96838	0.02484
1233.90843	0.02532
1231.84848	0.02581
1229.78854	0.02631
1227.72859	0.02685
1225.66864	0.02752
1223.60869	0.02838
1221.54875	0.02936
1219.48880	0.03045
1217.42885	0.03164
1215.36891	0.03288
1213.30896	0.03412
1211.24901	0.03537
1209.18906	0.03662
1207.12912	0.03781
1205.06917	0.03900
1203.00922	0.04019
1200.94927	0.04130
1198.88933	0.04231
1196.82938	0.04328
1194.76943	0.04423
1192.70949	0.04516
1190.64954	0.04608
1188.58959	0.04698
1186.52964	0.04796
1184.46970	0.04904
1182.40975	0.05022
1180.34980	0.05149
1178.28985	0.05291
1176.22991	0.05450
1174.16996	0.05626
1172.11001	0.05820
1170.05006	0.06031
1167.99012	0.06252
1165.93017	0.06464
1163.87022	0.06619
1161.81028	0.06657
1159.75033	0.06579
1157.69038	0.06473
1155.63043	0.06433
1153.57049	0.06489
1151.51054	0.06607
1149.45059	0.06746
1147.39064	0.06893
1145.33070	0.07048
1143.27075	0.07212
1141.21080	0.07384
1139.15086	0.07564
1137.09091	0.07748
1135.03096	0.07942
1132.97101	0.08144
1130.91107	0.08353
1128.85112	0.08569
1126.79117	0.08790
1124.73122	0.09010
1122.67128	0.09233
1120.61133	0.09461
1118.55138	0.09694
1116.49144	0.09930
1114.43149	0.10166
1112.37154	0.10399
1110.31159	0.10631
1108.25165	0.10870
1106.19170	0.11123
1104.13175	0.11383
1102.07180	0.11638
1100.01186	0.11891
1097.95191	0.12147
1095.89196	0.12400
1093.83201	0.12641
1091.77207	0.12870
1089.71212	0.13087
1087.65217	0.13280
1085.59223	0.13440
1083.53228	0.13565
1081.47233	0.13657
1079.41238	0.13715
1077.35244	0.13735
1075.29249	0.13713
1073.23254	0.13662
1071.17259	0.13611
1069.11265	0.13582
1067.05270	0.13582
1064.99275	0.13605
1062.93281	0.13630
1060.87286	0.13637
1058.81291	0.13624
1056.75296	0.13595
1054.69302	0.13553
1052.63307	0.13509
1050.57312	0.13466
1048.51317	0.13426
1046.45323	0.13391
1044.39328	0.13362
1042.33333	0.13347
1040.27339	0.13337
1038.21344	0.13330
1036.15349	0.13330
1034.09354	0.13324
1032.03360	0.13297
1029.97365	0.13246
1027.91370	0.13179
1025.85375	0.13101
1023.79381	0.13016
1021.73386	0.12931
1019.67391	0.12856
1017.61396	0.12794
1015.55402	0.12737
1013.49407	0.12679
1011.43412	0.12622
1009.37418	0.12564
1007.31423	0.12499
1005.25428	0.12424
1003.19433	0.12331
1001.13439	0.12219
999.07444	0.12094
997.01449	0.11965
994.95454	0.11837
992.89460	0.11712
990.83465	0.11595
988.77470	0.11476
986.71476	0.11347
984.65481	0.11213
982.59486	0.11070
980.53491	0.10923
978.47497	0.10778
976.41502	0.10633
974.35507	0.10487
972.29512	0.10340
970.23518	0.10192
968.17523	0.10049
966.11528	0.09911
964.05534	0.09778
961.99539	0.09645
959.93544	0.09511
957.87549	0.09382
955.81555	0.09261
953.75560	0.09144
951.69565	0.09033
949.63570	0.08930
947.57576	0.08827
945.51581	0.08728
943.45586	0.08638
941.39591	0.08554
939.33597	0.08468
937.27602	0.08378
935.21607	0.08286
933.15613	0.08195
931.09618	0.08108
929.03623	0.08024
926.97628	0.07942
924.91634	0.07863
922.85639	0.07785
920.79644	0.07708
918.73649	0.07638
916.67655	0.07573
914.61660	0.07504
912.55665	0.07425
910.49671	0.07335
908.43676	0.07225
906.37681	0.07099
904.31686	0.06963
902.25692	0.06832
900.19697	0.06712
898.13702	0.06598
896.07707	0.06489
894.01713	0.06377
891.95718	0.06259
889.89723	0.06155
887.83729	0.06070
885.77734	0.05986
883.71739	0.05890
881.65744	0.05788
879.59750	0.05684
877.53755	0.05587
875.47760	0.05491
873.41765	0.05391
871.35771	0.05290
869.29776	0.05191
867.23781	0.05098
865.17786	0.05007
863.11792	0.04911
861.05797	0.04811
858.99802	0.04717
856.93808	0.04632
854.87813	0.04552
852.81818	0.04471
850.75823	0.04396
848.69829	0.04321
846.63834	0.04239
844.57839	0.04164
842.51844	0.04111
840.45850	0.04074
838.39855	0.04040
836.33860	0.04006
834.27866	0.03979
832.21871	0.03960
830.15876	0.03941
828.09881	0.03924
826.03887	0.03917
823.97892	0.03929
821.91897	0.03959
819.85902	0.04009
817.79908	0.04098
815.73913	0.04243
813.67918	0.04460
811.61924	0.04779
809.55929	0.05244
807.49934	0.05879
805.43939	0.06660
803.37945	0.07505
801.31950	0.08298
799.25955	0.08911
797.19960	0.09241
795.13966	0.09287
793.07971	0.09164
791.01976	0.09022
788.95981	0.08968
786.89987	0.09068
784.83992	0.09348
782.77997	0.09755
780.72003	0.10169
778.66008	0.10439
776.60013	0.10450
774.54018	0.10232
772.48024	0.09909
770.42029	0.09570
768.36034	0.09244
766.30039	0.08944
764.24045	0.08682
762.18050	0.08449
760.12055	0.08230
758.06061	0.08016
756.00066	0.07815
753.94071	0.07635
751.88076	0.07473
749.82082	0.07326
747.76087	0.07190
745.70092	0.07053
743.64097	0.06920
741.58103	0.06800
739.52108	0.06689
737.46113	0.06589
735.40119	0.06500
733.34124	0.06422
731.28129	0.06348
729.22134	0.06269
727.16140	0.06197
725.10145	0.06130
723.04150	0.06056
720.98155	0.05985
718.92161	0.05924
716.86166	0.05861
714.80171	0.05795
712.74176	0.05736
710.68182	0.05702
708.62187	0.05702
706.56192	0.05734
704.50198	0.05810
702.44203	0.05978
700.38208	0.06306
698.32213	0.06806
696.26219	0.07319
694.20224	0.07588
692.14229	0.07528
690.08234	0.07268
688.02240	0.06962
685.96245	0.06691
683.90250	0.06462
681.84256	0.06259
679.78261	0.06079
677.72266	0.05934
675.66271	0.05816
673.60277	0.05719
671.54282	0.05640
669.48287	0.05551
667.42292	0.05444
665.36298	0.05374
663.30303	0.05323
661.24308	0.05264
659.18314	0.05214
657.12319	0.05178
655.06324	0.05152
653.00329	0.05133
650.94335	0.05128
648.88340	0.05122
646.82345	0.05101
644.76350	0.05069
642.70356	0.05027
640.64361	0.04982
638.58366	0.04936
636.52371	0.04876
634.46377	0.04814
632.40382	0.04775
630.34387	0.04749
628.28393	0.04722
626.22398	0.04697
624.16403	0.04677
622.10408	0.04673
620.04414	0.04677
617.98419	0.04676
615.92424	0.04677
613.86429	0.04689
611.80435	0.04711
609.74440	0.04727
607.68445	0.04733
605.62451	0.04737
603.56456	0.04740
601.50461	0.04755
599.44466	0.04785
597.38472	0.04812
595.32477	0.04833
593.26482	0.04859
591.20487	0.04890
589.14493	0.04922
587.08498	0.04949
585.02503	0.04968
582.96509	0.04982
580.90514	0.04998
578.84519	0.05027
576.78524	0.05048
574.72530	0.05048
572.66535	0.05068
570.60540	0.05121
568.54545	0.05177
566.48551	0.05231
564.42556	0.05283
562.36561	0.05325
560.30566	0.05373
558.24572	0.05440
556.18577	0.05522
554.12582	0.05622
552.06588	0.05772
550.00593	0.05976
547.94598	0.06197
545.88603	0.06450
543.82609	0.06780
541.76614	0.07172
539.70619	0.07592
537.64624	0.08018
535.58630	0.08418
533.52635	0.08786
531.46640	0.09123
529.40646	0.09420
527.34651	0.09700
525.28656	0.09962
523.22661	0.10169
521.16667	0.10312
519.10672	0.10380
517.04677	0.10381
514.98682	0.10360
512.92688	0.10299
510.86693	0.10175
508.80698	0.10060
506.74704	0.10024
504.68709	0.10105
502.62714	0.10369
500.56719	0.10795
498.50725	0.11267
496.44730	0.11754
494.38735	0.12240
492.32740	0.12718
490.26746	0.13184
488.20751	0.13626
486.14756	0.14076
484.08761	0.14596
482.02767	0.15192
479.96772	0.15788
477.90777	0.16381
475.84783	0.17003
473.78788	0.17639
471.72793	0.18283
469.66798	0.18869
467.60804	0.19395
465.54809	0.19874
463.48814	0.20240
461.42819	0.20504
459.36825	0.20743
457.30830	0.20938
455.24835	0.20941
453.18841	0.20786
451.12846	0.20565
449.06851	0.20314
447.00856	0.20057
444.94862	0.19807
442.88867	0.19536
440.82872	0.19227
438.76877	0.18945
436.70883	0.18724
434.64888	0.18513
432.58893	0.18283
430.52899	0.18054
428.46904	0.17795
426.40909	0.17456
424.34914	0.17077
422.28920	0.16754
420.22925	0.16387
418.16930	0.15871
416.10935	0.15409
414.04941	0.14893
411.98946	0.14178
409.92951	0.13284
407.86956	0.12367
405.80962	0.11856
403.74967	0.12165
401.68972	0.13302
399.62978	0.15080
