3996.29776	0.04586
3994.23781	0.04594
3992.17786	0.04599
3990.11791	0.04605
3988.05797	0.04612
3985.99802	0.04604
3983.93807	0.04589
3981.87813	0.04585
3979.81818	0.04587
3977.75823	0.04588
3975.69828	0.04593
3973.63834	0.04593
3971.57839	0.04583
3969.51844	0.04584
3967.45849	0.04593
3965.39855	0.04589
3963.33860	0.04579
3961.27865	0.04583
3959.21870	0.04590
3957.15876	0.04587
3955.09881	0.04575
3953.03886	0.04546
3950.97892	0.04530
3948.91897	0.04555
3946.85902	0.04581
3944.79907	0.04570
3942.73913	0.04577
3940.67918	0.04601
3938.61923	0.04589
3936.55928	0.04547
3934.49934	0.04514
3932.43939	0.04536
3930.37944	0.04592
3928.31950	0.04585
3926.25955	0.04543
3924.19960	0.04547
3922.13965	0.04551
3920.07971	0.04528
3918.01976	0.04543
3915.95981	0.04589
3913.89986	0.04586
3911.83992	0.04545
3909.77997	0.04504
3907.72002	0.04450
3905.66008	0.04417
3903.60013	0.04457
3901.54018	0.04531
3899.48023	0.04595
3897.42029	0.04610
3895.36034	0.04537
3893.30039	0.04473
3891.24044	0.04520
3889.18050	0.04531
3887.12055	0.04465
3885.06060	0.04486
3883.00065	0.04517
3880.94071	0.04528
3878.88076	0.04564
3876.82081	0.04508
3874.76087	0.04448
3872.70092	0.04449
3870.64097	0.04488
3868.58102	0.04551
3866.52108	0.04536
3864.46113	0.04535
3862.40118	0.04583
3860.34123	0.04558
3858.28129	0.04451
3856.22134	0.04315
3854.16139	0.04364
3852.10145	0.04667
3850.04150	0.04711
3847.98155	0.04576
3845.92160	0.04463
3843.86166	0.04422
3841.80171	0.04414
3839.74176	0.04426
3837.68181	0.04523
3835.62187	0.04591
3833.56192	0.04559
3831.50197	0.04525
3829.44203	0.04496
3827.38208	0.04470
3825.32213	0.04440
3823.26218	0.04381
3821.20224	0.04430
3819.14229	0.04519
3817.08234	0.04517
3815.02239	0.04565
3812.96245	0.04552
3810.90250	0.04440
3808.84255	0.04364
3806.78260	0.04415
3804.72266	0.04439
3802.66271	0.04413
3800.60276	0.04500
3798.54282	0.04536
3796.48287	0.04519
3794.42292	0.04521
3792.36297	0.04484
3790.30303	0.04444
3788.24308	0.04422
3786.18313	0.04408
3784.12318	0.04412
3782.06324	0.04398
3780.00329	0.04403
3777.94334	0.04449
3775.88340	0.04452
3773.82345	0.04403
3771.76350	0.04365
3769.70355	0.04397
3767.64361	0.04434
3765.58366	0.04442
3763.52371	0.04427
3761.46376	0.04373
3759.40382	0.04374
3757.34387	0.04403
3755.28392	0.04338
3753.22398	0.04258
3751.16403	0.04350
3749.10408	0.04493
3747.04413	0.04436
3744.98419	0.04432
3742.92424	0.04544
3740.86429	0.04480
3738.80434	0.04334
3736.74440	0.04302
3734.68445	0.04441
3732.62450	0.04564
3730.56455	0.04531
3728.50461	0.04420
3726.44466	0.04363
3724.38471	0.04391
3722.32477	0.04431
3720.26482	0.04444
3718.20487	0.04411
3716.14492	0.04338
3714.08498	0.04269
3712.02503	0.04330
3709.96508	0.04493
3707.90513	0.04521
3705.84519	0.04437
3703.78524	0.04375
3701.72529	0.04430
3699.66535	0.04498
3697.60540	0.04472
3695.54545	0.04406
3693.48550	0.04338
3691.42556	0.04316
3689.36561	0.04438
3687.30566	0.04564
3685.24571	0.04530
3683.18577	0.04442
3681.12582	0.04377
3679.06587	0.04313
3677.00593	0.04293
3674.94598	0.04428
3672.88603	0.04472
3670.82608	0.04440
3668.76614	0.04532
3666.70619	0.04556
3664.64624	0.04487
3662.58629	0.04437
3660.52635	0.04405
3658.46640	0.04383
3656.40645	0.04425
3654.34651	0.04440
3652.28656	0.04349
3650.22661	0.04358
3648.16666	0.04584
3646.10672	0.04670
3644.04677	0.04596
3641.98682	0.04536
3639.92687	0.04525
3637.86693	0.04513
3635.80698	0.04494
3633.74703	0.04474
3631.68708	0.04418
3629.62714	0.04446
3627.56719	0.04633
3625.50724	0.04654
3623.44730	0.04543
3621.38735	0.04473
3619.32740	0.04531
3617.26745	0.04612
3615.20751	0.04597
3613.14756	0.04572
3611.08761	0.04567
3609.02766	0.04579
3606.96772	0.04614
3604.90777	0.04597
3602.84782	0.04544
3600.78788	0.04528
3598.72793	0.04536
3596.66798	0.04539
3594.60803	0.04558
3592.54809	0.04558
3590.48814	0.04501
3588.42819	0.04500
3586.36824	0.04600
3584.30830	0.04621
3582.24835	0.04574
3580.18840	0.04559
3578.12846	0.04566
3576.06851	0.04566
3574.00856	0.04559
3571.94861	0.04529
3569.88867	0.04478
3567.82872	0.04508
3565.76877	0.04631
3563.70882	0.04656
3561.64888	0.04614
3559.58893	0.04599
3557.52898	0.04595
3555.46903	0.04581
3553.40909	0.04576
3551.34914	0.04584
3549.28919	0.04580
3547.22925	0.04593
3545.16930	0.04645
3543.10935	0.04675
3541.04940	0.04654
3538.98946	0.04629
3536.92951	0.04628
3534.86956	0.04631
3532.80961	0.04620
3530.74967	0.04612
3528.68972	0.04629
3526.62977	0.04658
3524.56983	0.04683
3522.50988	0.04695
3520.44993	0.04688
3518.38998	0.04680
3516.33004	0.04681
3514.27009	0.04669
3512.21014	0.04653
3510.15019	0.04667
3508.09025	0.04695
3506.03030	0.04698
3503.97035	0.04698
3501.91041	0.04713
3499.85046	0.04712
3497.79051	0.04695
3495.73056	0.04689
3493.67062	0.04689
3491.61067	0.04684
3489.55072	0.04689
3487.49077	0.04705
3485.43083	0.04714
3483.37088	0.04720
3481.31093	0.04734
3479.25098	0.04740
3477.19104	0.04729
3475.13109	0.04724
3473.07114	0.04735
3471.01120	0.04743
3468.95125	0.04743
3466.89130	0.04743
3464.83135	0.04746
3462.77141	0.04751
3460.71146	0.04759
3458.65151	0.04759
3456.59156	0.04757
3454.53162	0.04761
3452.47167	0.04760
3450.41172	0.04749
3448.35178	0.04757
3446.29183	0.04784
3444.23188	0.04791
3442.17193	0.04786
3440.11199	0.04788
3438.05204	0.04789
3435.99209	0.04783
3433.93214	0.04770
3431.87220	0.04765
3429.81225	0.04775
3427.75230	0.04788
3425.69236	0.04794
3423.63241	0.04793
3421.57246	0.04793
3419.51251	0.04798
3417.45257	0.04806
3415.39262	0.04816
3413.33267	0.04821
3411.27272	0.04816
3409.21278	0.04809
3407.15283	0.04807
3405.09288	0.04812
3403.03293	0.04825
3400.97299	0.04833
3398.91304	0.04826
3396.85309	0.04812
3394.79315	0.04803
3392.73320	0.04805
3390.67325	0.04817
3388.61330	0.04829
3386.55336	0.04833
3384.49341	0.04827
3382.43346	0.04819
3380.37351	0.04817
3378.31357	0.04816
3376.25362	0.04817
3374.19367	0.04823
3372.13373	0.04824
3370.07378	0.04816
3368.01383	0.04815
3365.95388	0.04825
3363.89394	0.04834
3361.83399	0.04836
3359.77404	0.04837
3357.71409	0.04836
3355.65415	0.04834
3353.59420	0.04832
3351.53425	0.04822
3349.47431	0.04818
3347.41436	0.04828
3345.35441	0.04838
3343.29446	0.04838
3341.23452	0.04836
3339.17457	0.04834
3337.11462	0.04835
3335.05467	0.04842
3332.99473	0.04848
3330.93478	0.04845
3328.87483	0.04830
3326.81488	0.04812
3324.75494	0.04813
3322.69499	0.04831
3320.63504	0.04840
3318.57510	0.04836
3316.51515	0.04833
3314.45520	0.04833
3312.39525	0.04828
3310.33531	0.04822
3308.27536	0.04828
3306.21541	0.04837
3304.15546	0.04832
3302.09552	0.04823
3300.03557	0.04823
3297.97562	0.04830
3295.91568	0.04833
3293.85573	0.04833
3291.79578	0.04837
3289.73583	0.04840
3287.67589	0.04841
3285.61594	0.04842
3283.55599	0.04834
3281.49604	0.04820
3279.43610	0.04812
3277.37615	0.04814
3275.31620	0.04818
3273.25626	0.04820
3271.19631	0.04822
3269.13636	0.04819
3267.07641	0.04817
3265.01647	0.04823
3262.95652	0.04830
3260.89657	0.04826
3258.83662	0.04814
3256.77668	0.04809
3254.71673	0.04810
3252.65678	0.04809
3250.59683	0.04801
3248.53689	0.04790
3246.47694	0.04787
3244.41699	0.04795
3242.35705	0.04809
3240.29710	0.04815
3238.23715	0.04804
3236.17720	0.04787
3234.11726	0.04778
3232.05731	0.04774
3229.99736	0.04773
3227.93741	0.04776
3225.87747	0.04775
3223.81752	0.04769
3221.75757	0.04765
3219.69763	0.04767
3217.63768	0.04760
3215.57773	0.04749
3213.51778	0.04747
3211.45784	0.04743
3209.39789	0.04736
3207.33794	0.04739
3205.27799	0.04745
3203.21805	0.04741
3201.15810	0.04731
3199.09815	0.04729
3197.03821	0.04733
3194.97826	0.04730
3192.91831	0.04720
3190.85836	0.04712
3188.79842	0.04709
3186.73847	0.04708
3184.67852	0.04710
3182.61857	0.04713
3180.55863	0.04707
3178.49868	0.04692
3176.43873	0.04681
3174.37878	0.04679
3172.31884	0.04676
3170.25889	0.04666
3168.19894	0.04657
3166.13900	0.04653
3164.07905	0.04651
3162.01910	0.04650
3159.95915	0.04656
3157.89921	0.04660
3155.83926	0.04655
3153.77931	0.04648
3151.71936	0.04641
3149.65942	0.04632
3147.59947	0.04630
3145.53952	0.04630
3143.47958	0.04628
3141.41963	0.04624
3139.35968	0.04613
3137.29973	0.04601
3135.23979	0.04597
3133.17984	0.04597
3131.11989	0.04600
3129.05994	0.04601
3127.00000	0.04595
3124.94005	0.04582
3122.88010	0.04572
3120.82016	0.04569
3118.76021	0.04567
3116.70026	0.04568
3114.64031	0.04569
3112.58037	0.04565
3110.52042	0.04561
3108.46047	0.04558
3106.40052	0.04553
3104.34058	0.04552
3102.28063	0.04557
3100.22068	0.04557
3098.16073	0.04550
3096.10079	0.04545
3094.04084	0.04548
3091.98089	0.04551
3089.92095	0.04547
3087.86100	0.04539
3085.80105	0.04527
3083.74110	0.04522
3081.68116	0.04525
3079.62121	0.04526
3077.56126	0.04523
3075.50131	0.04527
3073.44137	0.04530
3071.38142	0.04524
3069.32147	0.04515
3067.26153	0.04517
3065.20158	0.04524
3063.14163	0.04520
3061.08168	0.04510
3059.02174	0.04506
3056.96179	0.04507
3054.90184	0.04509
3052.84189	0.04507
3050.78195	0.04500
3048.72200	0.04492
3046.66205	0.04486
3044.60211	0.04479
3042.54216	0.04471
3040.48221	0.04471
3038.42226	0.04478
3036.36232	0.04479
3034.30237	0.04467
3032.24242	0.04457
3030.18247	0.04460
3028.12253	0.04459
3026.06258	0.04449
3024.00263	0.04447
3021.94268	0.04452
3019.88274	0.04451
3017.82279	0.04446
3015.76284	0.04442
3013.70290	0.04442
3011.64295	0.04442
3009.58300	0.04432
3007.52305	0.04421
3005.46311	0.04424
3003.40316	0.04432
3001.34321	0.04429
2999.28326	0.04425
2997.22332	0.04428
2995.16337	0.04426
2993.10342	0.04420
2991.04348	0.04416
2988.98353	0.04410
2986.92358	0.04406
2984.86363	0.04407
2982.80369	0.04411
2980.74374	0.04412
2978.68379	0.04410
2976.62384	0.04410
2974.56390	0.04409
2972.50395	0.04403
2970.44400	0.04399
2968.38406	0.04397
2966.32411	0.04391
2964.26416	0.04385
2962.20421	0.04384
2960.14427	0.04389
2958.08432	0.04396
2956.02437	0.04398
2953.96442	0.04397
2951.90448	0.04396
2949.84453	0.04396
2947.78458	0.04405
2945.72463	0.04418
2943.66469	0.04424
2941.60474	0.04424
2939.54479	0.04427
2937.48485	0.04434
2935.42490	0.04440
2933.36495	0.04443
2931.30500	0.04452
2929.24506	0.04467
2927.18511	0.04481
2925.12516	0.04490
2923.06521	0.04496
2921.00527	0.04505
2918.94532	0.04511
2916.88537	0.04505
2914.82543	0.04484
2912.76548	0.04458
2910.70553	0.04437
2908.64558	0.04423
2906.58564	0.04412
2904.52569	0.04404
2902.46574	0.04398
2900.40579	0.04390
2898.34585	0.04378
2896.28590	0.04369
2894.22595	0.04367
2892.16601	0.04365
2890.10606	0.04360
2888.04611	0.04349
2885.98616	0.04340
2883.92622	0.04335
2881.86627	0.04329
2879.80632	0.04320
2877.74637	0.04313
2875.68643	0.04309
2873.62648	0.04303
2871.56653	0.04292
2869.50658	0.04285
2867.44664	0.04286
2865.38669	0.04292
2863.32674	0.04300
2861.26680	0.04303
2859.20685	0.04303
2857.14690	0.04306
2855.08695	0.04317
2853.02701	0.04334
2850.96706	0.04349
2848.90711	0.04349
2846.84716	0.04335
2844.78722	0.04313
2842.72727	0.04292
2840.66732	0.04274
2838.60738	0.04257
2836.54743	0.04242
2834.48748	0.04231
2832.42753	0.04224
2830.36759	0.04223
2828.30764	0.04221
2826.24769	0.04209
2824.18774	0.04195
2822.12780	0.04191
2820.06785	0.04193
2818.00790	0.04194
2815.94796	0.04189
2813.88801	0.04184
2811.82806	0.04181
2809.76811	0.04173
2807.70817	0.04163
2805.64822	0.04156
2803.58827	0.04152
2801.52832	0.04146
2799.46838	0.04144
2797.40843	0.04146
2795.34848	0.04141
2793.28853	0.04126
2791.22859	0.04114
2789.16864	0.04111
2787.10869	0.04113
2785.04875	0.04112
2782.98880	0.04107
2780.92885	0.04099
2778.86890	0.04096
2776.80896	0.04096
2774.74901	0.04090
2772.68906	0.04082
2770.62911	0.04077
2768.56917	0.04074
2766.50922	0.04070
2764.44927	0.04070
2762.38933	0.04071
2760.32938	0.04072
2758.26943	0.04069
2756.20948	0.04062
2754.14954	0.04053
2752.08959	0.04051
2750.02964	0.04052
2747.96969	0.04046
2745.90975	0.04038
2743.84980	0.04037
2741.78985	0.04037
2739.72991	0.04032
2737.66996	0.04027
2735.61001	0.04021
2733.55006	0.04015
2731.49012	0.04009
2729.43017	0.04007
2727.37022	0.04004
2725.31027	0.04000
2723.25033	0.03995
2721.19038	0.03993
2719.13043	0.03994
2717.07048	0.03994
2715.01054	0.03991
2712.95059	0.03986
2710.89064	0.03982
2708.83070	0.03978
2706.77075	0.03975
2704.71080	0.03973
2702.65085	0.03971
2700.59091	0.03964
2698.53096	0.03955
2696.47101	0.03947
2694.41106	0.03945
2692.35112	0.03946
2690.29117	0.03945
2688.23122	0.03944
2686.17128	0.03940
2684.11133	0.03933
2682.05138	0.03928
2679.99143	0.03929
2677.93149	0.03930
2675.87154	0.03931
2673.81159	0.03928
2671.75164	0.03925
2669.69170	0.03925
2667.63175	0.03932
2665.57180	0.03946
2663.51186	0.03963
2661.45191	0.03975
2659.39196	0.03982
2657.33201	0.03984
2655.27207	0.03986
2653.21212	0.03988
2651.15217	0.03986
2649.09222	0.03977
2647.03228	0.03965
2644.97233	0.03955
2642.91238	0.03948
2640.85243	0.03935
2638.79249	0.03917
2636.73254	0.03903
2634.67259	0.03898
2632.61265	0.03895
2630.55270	0.03888
2628.49275	0.03883
2626.43280	0.03879
2624.37286	0.03866
2622.31291	0.03845
2620.25296	0.03826
2618.19301	0.03817
2616.13307	0.03816
2614.07312	0.03812
2612.01317	0.03798
2609.95323	0.03786
2607.89328	0.03778
2605.83333	0.03770
2603.77338	0.03760
2601.71344	0.03755
2599.65349	0.03752
2597.59354	0.03748
2595.53359	0.03741
2593.47365	0.03725
2591.41370	0.03705
2589.35375	0.03695
2587.29381	0.03691
2585.23386	0.03686
2583.17391	0.03681
2581.11396	0.03683
2579.05402	0.03678
2576.99407	0.03662
2574.93412	0.03652
2572.87417	0.03649
2570.81423	0.03641
2568.75428	0.03637
2566.69433	0.03640
2564.63438	0.03633
2562.57444	0.03625
2560.51449	0.03625
2558.45454	0.03621
2556.39460	0.03607
2554.33465	0.03592
2552.27470	0.03591
2550.21475	0.03594
2548.15481	0.03588
2546.09486	0.03574
2544.03491	0.03567
2541.97496	0.03560
2539.91502	0.03553
2537.85507	0.03554
2535.79512	0.03561
2533.73518	0.03567
2531.67523	0.03567
2529.61528	0.03558
2527.55533	0.03548
2525.49539	0.03545
2523.43544	0.03549
2521.37549	0.03547
2519.31554	0.03536
2517.25560	0.03522
2515.19565	0.03511
2513.13570	0.03511
2511.07576	0.03510
2509.01581	0.03502
2506.95586	0.03494
2504.89591	0.03489
2502.83597	0.03485
2500.77602	0.03493
2498.71607	0.03508
2496.65612	0.03509
2494.59618	0.03498
2492.53623	0.03488
2490.47628	0.03478
2488.41633	0.03468
2486.35639	0.03464
2484.29644	0.03468
2482.23649	0.03472
2480.17655	0.03467
2478.11660	0.03462
2476.05665	0.03464
2473.99670	0.03466
2471.93676	0.03464
2469.87681	0.03458
2467.81686	0.03455
2465.75691	0.03457
2463.69697	0.03454
2461.63702	0.03452
2459.57707	0.03459
2457.51713	0.03471
2455.45718	0.03478
2453.39723	0.03473
2451.33728	0.03460
2449.27734	0.03442
2447.21739	0.03420
2445.15744	0.03408
2443.09749	0.03406
2441.03755	0.03406
2438.97760	0.03401
2436.91765	0.03392
2434.85771	0.03392
2432.79776	0.03400
2430.73781	0.03397
2428.67786	0.03381
2426.61792	0.03364
2424.55797	0.03353
2422.49802	0.03348
2420.43807	0.03350
2418.37813	0.03351
2416.31818	0.03345
2414.25823	0.03335
2412.19828	0.03333
2410.13834	0.03329
2408.07839	0.03312
2406.01844	0.03295
2403.95850	0.03290
2401.89855	0.03287
2399.83860	0.03286
2397.77865	0.03288
2395.71871	0.03289
2393.65876	0.03289
2391.59881	0.03288
2389.53886	0.03280
2387.47892	0.03267
2385.41897	0.03257
2383.35902	0.03253
2381.29908	0.03252
2379.23913	0.03251
2377.17918	0.03245
2375.11923	0.03240
2373.05929	0.03237
2370.99934	0.03231
2368.93939	0.03229
2366.87944	0.03242
2364.81950	0.03270
2362.75955	0.03310
2360.69960	0.03348
2358.63966	0.03369
2356.57971	0.03378
2354.51976	0.03389
2352.45981	0.03398
2350.39987	0.03375
2348.33992	0.03330
2346.27997	0.03311
2344.22002	0.03337
2342.16008	0.03364
2340.10013	0.03364
2338.04018	0.03362
2335.98023	0.03370
2333.92029	0.03372
2331.86034	0.03383
2329.80039	0.03446
2327.74045	0.03568
2325.68050	0.03656
2323.62055	0.03633
2321.56060	0.03562
2319.50066	0.03511
2317.44071	0.03476
2315.38076	0.03455
2313.32081	0.03441
2311.26087	0.03425
2309.20092	0.03419
2307.14097	0.03422
2305.08103	0.03415
2303.02108	0.03404
2300.96113	0.03402
2298.90118	0.03403
2296.84124	0.03409
2294.78129	0.03426
2292.72134	0.03445
2290.66139	0.03454
2288.60145	0.03459
2286.54150	0.03456
2284.48155	0.03429
2282.42161	0.03387
2280.36166	0.03353
2278.30171	0.03329
2276.24176	0.03303
2274.18182	0.03281
2272.12187	0.03270
2270.06192	0.03257
2268.00197	0.03235
2265.94203	0.03212
2263.88208	0.03201
2261.82213	0.03206
2259.76218	0.03214
2257.70224	0.03195
2255.64229	0.03152
2253.58234	0.03124
2251.52240	0.03121
2249.46245	0.03132
2247.40250	0.03150
2245.34255	0.03158
2243.28261	0.03150
2241.22266	0.03142
2239.16271	0.03148
2237.10276	0.03147
2235.04282	0.03126
2232.98287	0.03108
2230.92292	0.03105
2228.86298	0.03108
2226.80303	0.03103
2224.74308	0.03102
2222.68313	0.03105
2220.62319	0.03078
2218.56324	0.03029
2216.50329	0.03004
2214.44334	0.03007
2212.38340	0.03013
2210.32345	0.03018
2208.26350	0.03033
2206.20356	0.03046
2204.14361	0.03045
2202.08366	0.03035
2200.02371	0.03029
2197.96377	0.03024
2195.90382	0.03008
2193.84387	0.03006
2191.78392	0.03022
2189.72398	0.03016
2187.66403	0.03013
2185.60408	0.02998
2183.54413	0.02917
2181.48419	0.02871
2179.42424	0.02902
2177.36429	0.02887
2175.30435	0.02854
2173.24440	0.02921
2171.18445	0.03035
2169.12450	0.03093
2167.06456	0.03113
2165.00461	0.03126
2162.94466	0.03030
2160.88471	0.02675
2158.82477	0.02284
2156.76482	0.02208
2154.70487	0.02306
2152.64493	0.02399
2150.58498	0.02478
2148.52503	0.02518
2146.46508	0.02537
2144.40514	0.02562
2142.34519	0.02581
2140.28524	0.02586
2138.22529	0.02556
2136.16535	0.02485
2134.10540	0.02448
2132.04545	0.02494
2129.98551	0.02581
2127.92556	0.02662
2125.86561	0.02718
2123.80566	0.02755
2121.74572	0.02787
2119.68577	0.02828
2117.62582	0.02886
2115.56587	0.02929
2113.50593	0.02927
2111.44598	0.02904
2109.38603	0.02886
2107.32608	0.02879
2105.26614	0.02891
2103.20619	0.02900
2101.14624	0.02890
2099.08630	0.02874
2097.02635	0.02841
2094.96640	0.02803
2092.90645	0.02804
2090.84651	0.02834
2088.78656	0.02866
2086.72661	0.02898
2084.66666	0.02929
2082.60672	0.02946
2080.54677	0.02952
2078.48682	0.02941
2076.42688	0.02913
2074.36693	0.02902
2072.30698	0.02912
2070.24703	0.02911
2068.18709	0.02884
2066.12714	0.02849
2064.06719	0.02835
2062.00724	0.02838
2059.94730	0.02846
2057.88735	0.02857
2055.82740	0.02872
2053.76746	0.02937
2051.70751	0.03010
2049.64756	0.02964
2047.58761	0.02876
2045.52767	0.02849
2043.46772	0.02843
2041.40777	0.02844
2039.34782	0.02862
2037.28788	0.02853
2035.22793	0.02798
2033.16798	0.02741
2031.10803	0.02689
2029.04809	0.02657
2026.98814	0.02669
2024.92819	0.02691
2022.86825	0.02700
2020.80830	0.02681
2018.74835	0.02638
2016.68840	0.02613
2014.62846	0.02611
2012.56851	0.02622
2010.50856	0.02633
2008.44861	0.02587
2006.38867	0.02518
2004.32872	0.02533
2002.26877	0.02609
2000.20883	0.02672
1998.14888	0.02698
1996.08893	0.02708
1994.02898	0.02735
1991.96904	0.02766
1989.90909	0.02781
1987.84914	0.02803
1985.78919	0.02855
1983.72925	0.02940
1981.66930	0.02985
1979.60935	0.02850
1977.54941	0.02622
1975.48946	0.02520
1973.42951	0.02508
1971.36956	0.02487
1969.30962	0.02484
1967.24967	0.02497
1965.18972	0.02498
1963.12977	0.02501
1961.06983	0.02492
1959.00988	0.02472
1956.94993	0.02486
1954.88998	0.02536
1952.83004	0.02586
1950.77009	0.02600
1948.71014	0.02578
1946.65020	0.02551
1944.59025	0.02546
1942.53030	0.02567
1940.47035	0.02602
1938.41041	0.02624
1936.35046	0.02616
1934.29051	0.02599
1932.23056	0.02595
1930.17062	0.02600
1928.11067	0.02609
1926.05072	0.02620
1923.99078	0.02642
1921.93083	0.02670
1919.87088	0.02685
1917.81093	0.02699
1915.75099	0.02718
1913.69104	0.02724
1911.63109	0.02719
1909.57114	0.02722
1907.51120	0.02736
1905.45125	0.02748
1903.39130	0.02760
1901.33136	0.02766
1899.27141	0.02757
1897.21146	0.02740
1895.15151	0.02736
1893.09157	0.02743
1891.03162	0.02747
1888.97167	0.02762
1886.91172	0.02787
1884.85178	0.02802
1882.79183	0.02810
1880.73188	0.02816
1878.67193	0.02817
1876.61199	0.02810
1874.55204	0.02797
1872.49209	0.02782
1870.43215	0.02779
1868.37220	0.02799
1866.31225	0.02808
1864.25230	0.02799
1862.19236	0.02794
1860.13241	0.02788
1858.07246	0.02777
1856.01251	0.02765
1853.95257	0.02752
1851.89262	0.02739
1849.83267	0.02726
1847.77273	0.02710
1845.71278	0.02701
1843.65283	0.02717
1841.59288	0.02725
1839.53294	0.02717
1837.47299	0.02717
1835.41304	0.02713
1833.35309	0.02698
1831.29315	0.02694
1829.23320	0.02713
1827.17325	0.02718
1825.11331	0.02718
1823.05336	0.02725
1820.99341	0.02709
1818.93346	0.02678
1816.87352	0.02666
1814.81357	0.02681
1812.75362	0.02705
1810.69367	0.02736
1808.63373	0.02759
1806.57378	0.02760
1804.51383	0.02751
1802.45388	0.02754
1800.39394	0.02773
1798.33399	0.02784
1796.27404	0.02776
1794.21410	0.02767
1792.15415	0.02788
1790.09420	0.02811
1788.03425	0.02806
1785.97431	0.02801
1783.91436	0.02802
1781.85441	0.02797
1779.79446	0.02796
1777.73452	0.02793
1775.67457	0.02777
1773.61462	0.02777
1771.55468	0.02806
1769.49473	0.02820
1767.43478	0.02816
1765.37483	0.02807
1763.31489	0.02806
1761.25494	0.02830
1759.19499	0.02846
1757.13504	0.02850
1755.07510	0.02846
1753.01515	0.02829
1750.95520	0.02843
1748.89526	0.02889
1746.83531	0.02909
1744.77536	0.02911
1742.71541	0.02911
1740.65547	0.02918
1738.59552	0.02928
1736.53557	0.02922
1734.47562	0.02946
1732.41568	0.03003
1730.35573	0.03015
1728.29578	0.03012
1726.23583	0.03005
1724.17589	0.03004
1722.11594	0.03007
1720.05599	0.03006
1717.99605	0.03043
1715.93610	0.03118
1713.87615	0.03141
1711.81620	0.03128
1709.75626	0.03113
1707.69631	0.03118
1705.63636	0.03149
1703.57641	0.03158
1701.51647	0.03157
1699.45652	0.03211
1697.39657	0.03260
1695.33663	0.03293
1693.27668	0.03306
1691.21673	0.03302
1689.15678	0.03310
1687.09684	0.03308
1685.03689	0.03334
1682.97694	0.03424
1680.91699	0.03449
1678.85705	0.03432
1676.79710	0.03430
1674.73715	0.03467
1672.67721	0.03494
1670.61726	0.03512
1668.55731	0.03557
1666.49736	0.03570
1664.43742	0.03562
1662.37747	0.03591
1660.31752	0.03624
1658.25757	0.03621
1656.19763	0.03600
1654.13768	0.03633
1652.07773	0.03759
1650.01778	0.03764
1647.95784	0.03741
1645.89789	0.03786
1643.83794	0.03804
1641.77800	0.03785
1639.71805	0.03772
1637.65810	0.03781
1635.59815	0.03850
1633.53821	0.03897
1631.47826	0.03878
1629.41831	0.03867
1627.35836	0.03881
1625.29842	0.03892
1623.23847	0.03910
1621.17852	0.03922
1619.11858	0.03908
1617.05863	0.03928
1614.99868	0.03969
1612.93873	0.03960
1610.87879	0.03941
1608.81884	0.03943
1606.75889	0.03951
1604.69894	0.03948
1602.63900	0.03942
1600.57905	0.03939
1598.51910	0.03938
1596.45916	0.03938
1594.39921	0.03935
1592.33926	0.03928
1590.27931	0.03920
1588.21937	0.03917
1586.15942	0.03912
1584.09947	0.03901
1582.03952	0.03888
1579.97958	0.03871
1577.91963	0.03857
1575.85968	0.03876
1573.79973	0.03874
1571.73979	0.03832
1569.67984	0.03816
1567.61989	0.03825
1565.55995	0.03810
1563.50000	0.03772
1561.44005	0.03716
1559.38010	0.03714
1557.32016	0.03776
1555.26021	0.03759
1553.20026	0.03723
1551.14031	0.03693
1549.08037	0.03668
1547.02042	0.03641
1544.96047	0.03615
1542.90053	0.03602
1540.84058	0.03618
1538.78063	0.03647
1536.72068	0.03612
1534.66074	0.03571
1532.60079	0.03564
1530.54084	0.03546
1528.48089	0.03516
1526.42095	0.03505
1524.36100	0.03492
1522.30105	0.03479
1520.24111	0.03479
1518.18116	0.03464
1516.12121	0.03451
1514.06126	0.03432
1512.00132	0.03399
1509.94137	0.03363
1507.88142	0.03363
1505.82147	0.03412
1503.76153	0.03390
1501.70158	0.03339
1499.64163	0.03312
1497.58168	0.03321
1495.52174	0.03330
1493.46179	0.03306
1491.40184	0.03286
1489.34190	0.03309
1487.28195	0.03337
1485.22200	0.03332
1483.16205	0.03319
1481.10211	0.03317
1479.04216	0.03322
1476.98221	0.03330
1474.92226	0.03358
1472.86232	0.03421
1470.80237	0.03467
1468.74242	0.03459
1466.68248	0.03448
1464.62253	0.03471
1462.56258	0.03486
1460.50263	0.03473
1458.44269	0.03490
1456.38274	0.03566
1454.32279	0.03581
1452.26284	0.03556
1450.20290	0.03546
1448.14295	0.03555
1446.08300	0.03561
1444.02306	0.03554
1441.96311	0.03546
1439.90316	0.03539
1437.84321	0.03550
1435.78327	0.03587
1433.72332	0.03595
1431.66337	0.03583
1429.60342	0.03587
1427.54348	0.03591
1425.48353	0.03589
1423.42358	0.03590
1421.36363	0.03587
1419.30369	0.03601
1417.24374	0.03623
1415.18379	0.03610
1413.12385	0.03591
1411.06390	0.03585
1409.00395	0.03576
1406.94400	0.03561
1404.88406	0.03555
1402.82411	0.03547
1400.76416	0.03533
1398.70421	0.03527
1396.64427	0.03526
1394.58432	0.03528
1392.52437	0.03523
1390.46443	0.03502
1388.40448	0.03494
1386.34453	0.03502
1384.28458	0.03497
1382.22464	0.03481
1380.16469	0.03472
1378.10474	0.03470
1376.04479	0.03470
1373.98485	0.03471
1371.92490	0.03463
1369.86495	0.03448
1367.80501	0.03434
1365.74506	0.03417
1363.68511	0.03405
1361.62516	0.03404
1359.56522	0.03394
1357.50527	0.03376
1355.44532	0.03361
1353.38537	0.03351
1351.32543	0.03339
1349.26548	0.03324
1347.20553	0.03307
1345.14558	0.03297
1343.08564	0.03290
1341.02569	0.03287
1338.96574	0.03294
1336.90580	0.03296
1334.84585	0.03286
1332.78590	0.03273
1330.72595	0.03262
1328.66601	0.03252
1326.60606	0.03243
1324.54611	0.03237
1322.48616	0.03237
1320.42622	0.03244
1318.36627	0.03252
1316.30632	0.03250
1314.24638	0.03244
1312.18643	0.03243
1310.12648	0.03240
1308.06653	0.03235
1306.00659	0.03233
1303.94664	0.03237
1301.88669	0.03244
1299.82674	0.03247
1297.76680	0.03246
1295.70685	0.03251
1293.64690	0.03261
1291.58696	0.03273
1289.52701	0.03286
1287.46706	0.03302
1285.40711	0.03323
1283.34717	0.03342
1281.28722	0.03357
1279.22727	0.03370
1277.16732	0.03384
1275.10738	0.03400
1273.04743	0.03418
1270.98748	0.03433
1268.92753	0.03445
1266.86759	0.03457
1264.80764	0.03472
1262.74769	0.03491
1260.68775	0.03511
1258.62780	0.03531
1256.56785	0.03553
1254.50790	0.03577
1252.44796	0.03608
1250.38801	0.03644
1248.32806	0.03682
1246.26811	0.03720
1244.20817	0.03760
1242.14822	0.03803
1240.08827	0.03847
1238.02833	0.03889
1235.96838	0.03936
1233.90843	0.03987
1231.84848	0.04039
1229.78854	0.04094
1227.72859	0.04159
1225.66864	0.04240
1223.60869	0.04339
1221.54875	0.04455
1219.48880	0.04586
1217.42885	0.04729
1215.36891	0.04876
1213.30896	0.05024
1211.24901	0.05172
1209.18906	0.05317
1207.12912	0.05457
1205.06917	0.05595
1203.00922	0.05733
1200.94927	0.05865
1198.88933	0.05985
1196.82938	0.06099
1194.76943	0.06213
1192.70949	0.06323
1190.64954	0.06428
1188.58959	0.06530
1186.52964	0.06638
1184.46970	0.06757
1182.40975	0.06879
1180.34980	0.07007
1178.28985	0.07149
1176.22991	0.07312
1174.16996	0.07500
1172.11001	0.07716
1170.05006	0.07959
1167.99012	0.08219
1165.93017	0.08473
1163.87022	0.08674
1161.81028	0.08760
1159.75033	0.08703
1157.69038	0.08574
1155.63043	0.08486
1153.57049	0.08488
1151.51054	0.08565
1149.45059	0.08683
1147.39064	0.08819
1145.33070	0.08963
1143.27075	0.09117
1141.21080	0.09288
1139.15086	0.09476
1137.09091	0.09677
1135.03096	0.09891
1132.97101	0.10113
1130.91107	0.10345
1128.85112	0.10593
1126.79117	0.10851
1124.73122	0.11110
1122.67128	0.11373
1120.61133	0.11648
1118.55138	0.11935
1116.49144	0.12230
1114.43149	0.12524
1112.37154	0.12814
1110.31159	0.13115
1108.25165	0.13431
1106.19170	0.13753
1104.13175	0.14082
1102.07180	0.14417
1100.01186	0.14761
1097.95191	0.15110
1095.89196	0.15452
1093.83201	0.15778
1091.77207	0.16098
1089.71212	0.16409
1087.65217	0.16692
1085.59223	0.16931
1083.53228	0.17132
1081.47233	0.17301
1079.41238	0.17433
1077.35244	0.17514
1075.29249	0.17540
1073.23254	0.17524
1071.17259	0.17502
1069.11265	0.17500
1067.05270	0.17519
1064.99275	0.17549
1062.93281	0.17570
1060.87286	0.17565
1058.81291	0.17533
1056.75296	0.17476
1054.69302	0.17400
1052.63307	0.17318
1050.57312	0.17244
1048.51317	0.17186
1046.45323	0.17140
1044.39328	0.17107
1042.33333	0.17090
1040.27339	0.17075
1038.21344	0.17053
1036.15349	0.17025
1034.09354	0.17000
1032.03360	0.16968
1029.97365	0.16915
1027.91370	0.16842
1025.85375	0.16753
1023.79381	0.16651
1021.73386	0.16548
1019.67391	0.16459
1017.61396	0.16383
1015.55402	0.16313
1013.49407	0.16250
1011.43412	0.16191
1009.37418	0.16129
1007.31423	0.16054
1005.25428	0.15958
1003.19433	0.15843
1001.13439	0.15716
999.07444	0.15585
997.01449	0.15453
994.95454	0.15320
992.89460	0.15187
990.83465	0.15053
988.77470	0.14913
986.71476	0.14771
984.65481	0.14629
982.59486	0.14485
980.53491	0.14338
978.47497	0.14187
976.41502	0.14034
974.35507	0.13878
972.29512	0.13713
970.23518	0.13546
968.17523	0.13386
966.11528	0.13228
964.05534	0.13066
961.99539	0.12905
959.93544	0.12746
957.87549	0.12595
955.81555	0.12451
953.75560	0.12310
951.69565	0.12167
949.63570	0.12032
947.57576	0.11905
945.51581	0.11775
943.45586	0.11648
941.39591	0.11536
939.33597	0.11421
937.27602	0.11298
935.21607	0.11174
933.15613	0.11050
931.09618	0.10930
929.03623	0.10815
926.97628	0.10700
924.91634	0.10587
922.85639	0.10478
920.79644	0.10367
918.73649	0.10264
916.67655	0.10173
914.61660	0.10080
912.55665	0.09968
910.49671	0.09837
908.43676	0.09688
906.37681	0.09519
904.31686	0.09340
902.25692	0.09171
900.19697	0.09012
898.13702	0.08850
896.07707	0.08686
894.01713	0.08525
891.95718	0.08367
889.89723	0.08217
887.83729	0.08079
885.77734	0.07945
883.71739	0.07809
881.65744	0.07674
879.59750	0.07544
877.53755	0.07413
875.47760	0.07278
873.41765	0.07142
871.35771	0.07012
869.29776	0.06887
867.23781	0.06763
865.17786	0.06635
863.11792	0.06506
861.05797	0.06382
858.99802	0.06271
856.93808	0.06174
854.87813	0.06074
852.81818	0.05974
850.75823	0.05888
848.69829	0.05805
846.63834	0.05723
844.57839	0.05656
842.51844	0.05612
840.45850	0.05585
838.39855	0.05560
836.33860	0.05531
834.27866	0.05509
832.21871	0.05502
830.15876	0.05508
828.09881	0.05527
826.03887	0.05556
823.97892	0.05602
821.91897	0.05671
819.85902	0.05766
817.79908	0.05901
815.73913	0.06098
813.67918	0.06381
811.61924	0.06779
809.55929	0.07333
807.49934	0.08070
805.43939	0.08964
803.37945	0.09936
801.31950	0.10859
799.25955	0.11586
797.19960	0.11988
795.13966	0.12052
793.07971	0.11916
791.01976	0.11751
788.95981	0.11677
786.89987	0.11784
784.83992	0.12104
782.77997	0.12579
780.72003	0.13066
778.66008	0.13377
776.60013	0.13398
774.54018	0.13165
772.48024	0.12790
770.42029	0.12374
768.36034	0.11982
766.30039	0.11622
764.24045	0.11281
762.18050	0.10966
760.12055	0.10676
758.06061	0.10399
756.00066	0.10133
753.94071	0.09892
751.88076	0.09670
749.82082	0.09452
747.76087	0.09247
745.70092	0.09057
743.64097	0.08868
741.58103	0.08688
739.52108	0.08532
737.46113	0.08385
735.40119	0.08234
733.34124	0.08094
731.28129	0.07978
729.22134	0.07883
727.16140	0.07795
725.10145	0.07706
723.04150	0.07620
720.98155	0.07547
718.92161	0.07482
716.86166	0.07420
714.80171	0.07376
712.74176	0.07351
710.68182	0.07349
708.62187	0.07385
706.56192	0.07467
704.50198	0.07614
702.44203	0.07879
700.38208	0.08319
698.32213	0.08921
696.26219	0.09488
694.20224	0.09731
692.14229	0.09575
690.08234	0.09194
688.02240	0.08772
685.96245	0.08389
683.90250	0.08070
681.84256	0.07801
679.78261	0.07566
677.72266	0.07372
675.66271	0.07210
673.60277	0.07061
671.54282	0.06924
669.48287	0.06798
667.42292	0.06675
665.36298	0.06569
663.30303	0.06473
661.24308	0.06380
659.18314	0.06301
657.12319	0.06246
655.06324	0.06213
653.00329	0.06184
650.94335	0.06145
648.88340	0.06103
646.82345	0.06070
644.76350	0.06032
642.70356	0.05978
640.64361	0.05923
638.58366	0.05874
636.52371	0.05815
634.46377	0.05756
632.40382	0.05708
630.34387	0.05672
628.28393	0.05644
626.22398	0.05617
624.16403	0.05587
622.10408	0.05564
620.04414	0.05557
617.98419	0.05559
615.92424	0.05559
613.86429	0.05562
611.80435	0.05574
609.74440	0.05580
607.68445	0.05576
605.62451	0.05579
603.56456	0.05591
601.50461	0.05605
599.44466	0.05622
597.38472	0.05639
595.32477	0.05647
593.26482	0.05650
591.20487	0.05654
589.14493	0.05666
587.08498	0.05696
585.02503	0.05723
582.96509	0.05728
580.90514	0.05738
578.84519	0.05777
576.78524	0.05821
574.72530	0.05844
572.66535	0.05856
570.60540	0.05874
568.54545	0.05907
566.48551	0.05956
564.42556	0.06003
562.36561	0.06054
560.30566	0.06123
558.24572	0.06211
556.18577	0.06327
554.12582	0.06462
552.06588	0.06611
550.00593	0.06796
547.94598	0.07028
545.88603	0.07332
543.82609	0.07718
541.76614	0.08137
539.70619	0.08549
537.64624	0.08965
535.58630	0.09424
533.52635	0.09905
531.46640	0.10329
529.40646	0.10675
527.34651	0.10982
525.28656	0.11268
523.22661	0.11491
521.16667	0.11650
519.10672	0.11741
517.04677	0.11772
514.98682	0.11765
512.92688	0.11689
510.86693	0.11532
508.80698	0.11350
506.74704	0.11245
504.68709	0.11296
502.62714	0.11533
500.56719	0.11883
498.50725	0.12256
496.44730	0.12668
494.38735	0.13122
492.32740	0.13613
490.26746	0.14100
488.20751	0.14554
486.14756	0.15037
484.08761	0.15602
482.02767	0.16213
479.96772	0.16819
477.90777	0.17435
475.84783	0.18057
473.78788	0.18720
471.72793	0.19440
469.66798	0.20082
467.60804	0.20643
465.54809	0.21118
463.48814	0.21463
461.42819	0.21765
459.36825	0.22020
457.30830	0.22132
455.24835	0.22069
453.18841	0.21876
451.12846	0.21589
449.06851	0.21255
447.00856	0.20915
444.94862	0.20608
442.88867	0.20314
440.82872	0.19995
438.76877	0.19723
436.70883	0.19505
434.64888	0.19298
432.58893	0.19079
430.52899	0.18831
428.46904	0.18571
426.40909	0.18266
424.34914	0.17897
422.28920	0.17521
420.22925	0.17079
418.16930	0.16539
416.10935	0.16066
414.04941	0.15558
411.98946	0.14922
409.92951	0.14165
407.86956	0.13410
405.80962	0.12999
403.74967	0.13258
401.68972	0.14208
399.62978	0.15784
