3996.29776	0.04599
3994.23781	0.04604
3992.17786	0.04611
3990.11791	0.04619
3988.05797	0.04617
3985.99802	0.04602
3983.93807	0.04595
3981.87813	0.04607
3979.81818	0.04614
3977.75823	0.04606
3975.69828	0.04603
3973.63834	0.04605
3971.57839	0.04605
3969.51844	0.04609
3967.45849	0.04606
3965.39855	0.04594
3963.33860	0.04591
3961.27865	0.04605
3959.21870	0.04616
3957.15876	0.04610
3955.09881	0.04591
3953.03886	0.04569
3950.97892	0.04562
3948.91897	0.04580
3946.85902	0.04595
3944.79907	0.04588
3942.73913	0.04599
3940.67918	0.04614
3938.61923	0.04595
3936.55928	0.04564
3934.49934	0.04542
3932.43939	0.04562
3930.37944	0.04611
3928.31950	0.04608
3926.25955	0.04571
3924.19960	0.04562
3922.13965	0.04555
3920.07971	0.04537
3918.01976	0.04557
3915.95981	0.04598
3913.89986	0.04597
3911.83992	0.04570
3909.77997	0.04539
3907.72002	0.04488
3905.66008	0.04457
3903.60013	0.04493
3901.54018	0.04557
3899.48023	0.04617
3897.42029	0.04630
3895.36034	0.04559
3893.30039	0.04500
3891.24044	0.04539
3889.18050	0.04546
3887.12055	0.04495
3885.06060	0.04523
3883.00065	0.04551
3880.94071	0.04566
3878.88076	0.04602
3876.82081	0.04552
3874.76087	0.04494
3872.70092	0.04487
3870.64097	0.04517
3868.58102	0.04572
3866.52108	0.04553
3864.46113	0.04544
3862.40118	0.04579
3860.34123	0.04551
3858.28129	0.04458
3856.22134	0.04356
3854.16139	0.04419
3852.10145	0.04679
3850.04150	0.04699
3847.98155	0.04570
3845.92160	0.04468
3843.86166	0.04435
3841.80171	0.04437
3839.74176	0.04459
3837.68181	0.04544
3835.62187	0.04599
3833.56192	0.04579
3831.50197	0.04554
3829.44203	0.04524
3827.38208	0.04500
3825.32213	0.04473
3823.26218	0.04420
3821.20224	0.04467
3819.14229	0.04548
3817.08234	0.04553
3815.02239	0.04597
3812.96245	0.04573
3810.90250	0.04466
3808.84255	0.04406
3806.78260	0.04464
3804.72266	0.04485
3802.66271	0.04461
3800.60276	0.04536
3798.54282	0.04562
3796.48287	0.04538
3794.42292	0.04522
3792.36297	0.04481
3790.30303	0.04454
3788.24308	0.04442
3786.18313	0.04431
3784.12318	0.04433
3782.06324	0.04424
3780.00329	0.04440
3777.94334	0.04487
3775.88340	0.04476
3773.82345	0.04413
3771.76350	0.04368
3769.70355	0.04400
3767.64361	0.04452
3765.58366	0.04474
3763.52371	0.04459
3761.46376	0.04410
3759.40382	0.04414
3757.34387	0.04438
3755.28392	0.04381
3753.22398	0.04314
3751.16403	0.04394
3749.10408	0.04524
3747.04413	0.04485
3744.98419	0.04484
3742.92424	0.04568
3740.86429	0.04498
3738.80434	0.04365
3736.74440	0.04345
3734.68445	0.04480
3732.62450	0.04585
3730.56455	0.04551
3728.50461	0.04453
3726.44466	0.04395
3724.38471	0.04415
3722.32477	0.04452
3720.26482	0.04460
3718.20487	0.04422
3716.14492	0.04349
3714.08498	0.04288
3712.02503	0.04342
3709.96508	0.04481
3707.90513	0.04504
3705.84519	0.04428
3703.78524	0.04365
3701.72529	0.04401
3699.66535	0.04460
3697.60540	0.04448
3695.54545	0.04406
3693.48550	0.04355
3691.42556	0.04333
3689.36561	0.04428
3687.30566	0.04525
3685.24571	0.04490
3683.18577	0.04418
3681.12582	0.04367
3679.06587	0.04314
3677.00593	0.04303
3674.94598	0.04432
3672.88603	0.04465
3670.82608	0.04425
3668.76614	0.04486
3666.70619	0.04491
3664.64624	0.04429
3662.58629	0.04386
3660.52635	0.04356
3658.46640	0.04336
3656.40645	0.04373
3654.34651	0.04382
3652.28656	0.04300
3650.22661	0.04307
3648.16666	0.04494
3646.10672	0.04554
3644.04677	0.04476
3641.98682	0.04417
3639.92687	0.04406
3637.86693	0.04386
3635.80698	0.04358
3633.74703	0.04337
3631.68708	0.04290
3629.62714	0.04323
3627.56719	0.04483
3625.50724	0.04486
3623.44730	0.04380
3621.38735	0.04312
3619.32740	0.04348
3617.26745	0.04392
3615.20751	0.04365
3613.14756	0.04363
3611.08761	0.04382
3609.02766	0.04397
3606.96772	0.04424
3604.90777	0.04397
3602.84782	0.04331
3600.78788	0.04303
3598.72793	0.04307
3596.66798	0.04315
3594.60803	0.04344
3592.54809	0.04345
3590.48814	0.04286
3588.42819	0.04280
3586.36824	0.04364
3584.30830	0.04375
3582.24835	0.04329
3580.18840	0.04311
3578.12846	0.04310
3576.06851	0.04311
3574.00856	0.04315
3571.94861	0.04299
3569.88867	0.04261
3567.82872	0.04292
3565.76877	0.04380
3563.70882	0.04379
3561.64888	0.04325
3559.58893	0.04301
3557.52898	0.04299
3555.46903	0.04293
3553.40909	0.04292
3551.34914	0.04303
3549.28919	0.04301
3547.22925	0.04310
3545.16930	0.04351
3543.10935	0.04372
3541.04940	0.04351
3538.98946	0.04322
3536.92951	0.04311
3534.86956	0.04311
3532.80961	0.04306
3530.74967	0.04302
3528.68972	0.04317
3526.62977	0.04344
3524.56983	0.04362
3522.50988	0.04362
3520.44993	0.04341
3518.38998	0.04321
3516.33004	0.04319
3514.27009	0.04315
3512.21014	0.04307
3510.15019	0.04321
3508.09025	0.04345
3506.03030	0.04340
3503.97035	0.04329
3501.91041	0.04338
3499.85046	0.04334
3497.79051	0.04324
3495.73056	0.04325
3493.67062	0.04323
3491.61067	0.04311
3489.55072	0.04309
3487.49077	0.04319
3485.43083	0.04325
3483.37088	0.04331
3481.31093	0.04347
3479.25098	0.04352
3477.19104	0.04338
3475.13109	0.04323
3473.07114	0.04315
3471.01120	0.04313
3468.95125	0.04313
3466.89130	0.04313
3464.83135	0.04314
3462.77141	0.04324
3460.71146	0.04342
3458.65151	0.04349
3456.59156	0.04340
3454.53162	0.04334
3452.47167	0.04334
3450.41172	0.04328
3448.35178	0.04329
3446.29183	0.04338
3444.23188	0.04333
3442.17193	0.04326
3440.11199	0.04328
3438.05204	0.04326
3435.99209	0.04314
3433.93214	0.04302
3431.87220	0.04303
3429.81225	0.04312
3427.75230	0.04318
3425.69236	0.04317
3423.63241	0.04319
3421.57246	0.04327
3419.51251	0.04331
3417.45257	0.04323
3415.39262	0.04313
3413.33267	0.04312
3411.27272	0.04317
3409.21278	0.04324
3407.15283	0.04329
3405.09288	0.04331
3403.03293	0.04334
3400.97299	0.04334
3398.91304	0.04325
3396.85309	0.04320
3394.79315	0.04317
3392.73320	0.04313
3390.67325	0.04314
3388.61330	0.04323
3386.55336	0.04330
3384.49341	0.04323
3382.43346	0.04310
3380.37351	0.04304
3378.31357	0.04304
3376.25362	0.04305
3374.19367	0.04309
3372.13373	0.04306
3370.07378	0.04300
3368.01383	0.04298
3365.95388	0.04298
3363.89394	0.04297
3361.83399	0.04298
3359.77404	0.04302
3357.71409	0.04301
3355.65415	0.04299
3353.59420	0.04299
3351.53425	0.04290
3349.47431	0.04282
3347.41436	0.04287
3345.35441	0.04295
3343.29446	0.04295
3341.23452	0.04289
3339.17457	0.04287
3337.11462	0.04293
3335.05467	0.04301
3332.99473	0.04301
3330.93478	0.04289
3328.87483	0.04275
3326.81488	0.04268
3324.75494	0.04272
3322.69499	0.04282
3320.63504	0.04287
3318.57510	0.04285
3316.51515	0.04284
3314.45520	0.04282
3312.39525	0.04278
3310.33531	0.04277
3308.27536	0.04285
3306.21541	0.04286
3304.15546	0.04272
3302.09552	0.04260
3300.03557	0.04256
3297.97562	0.04252
3295.91568	0.04248
3293.85573	0.04252
3291.79578	0.04262
3289.73583	0.04266
3287.67589	0.04266
3285.61594	0.04266
3283.55599	0.04259
3281.49604	0.04254
3279.43610	0.04257
3277.37615	0.04253
3275.31620	0.04245
3273.25626	0.04251
3271.19631	0.04258
3269.13636	0.04252
3267.07641	0.04241
3265.01647	0.04237
3262.95652	0.04239
3260.89657	0.04240
3258.83662	0.04241
3256.77668	0.04246
3254.71673	0.04244
3252.65678	0.04232
3250.59683	0.04219
3248.53689	0.04215
3246.47694	0.04219
3244.41699	0.04223
3242.35705	0.04219
3240.29710	0.04218
3238.23715	0.04217
3236.17720	0.04214
3234.11726	0.04209
3232.05731	0.04205
3229.99736	0.04205
3227.93741	0.04209
3225.87747	0.04211
3223.81752	0.04205
3221.75757	0.04200
3219.69763	0.04199
3217.63768	0.04190
3215.57773	0.04179
3213.51778	0.04176
3211.45784	0.04180
3209.39789	0.04180
3207.33794	0.04178
3205.27799	0.04173
3203.21805	0.04162
3201.15810	0.04154
3199.09815	0.04155
3197.03821	0.04157
3194.97826	0.04156
3192.91831	0.04154
3190.85836	0.04150
3188.79842	0.04144
3186.73847	0.04141
3184.67852	0.04139
3182.61857	0.04137
3180.55863	0.04134
3178.49868	0.04138
3176.43873	0.04142
3174.37878	0.04136
3172.31884	0.04128
3170.25889	0.04123
3168.19894	0.04121
3166.13900	0.04122
3164.07905	0.04127
3162.01910	0.04132
3159.95915	0.04130
3157.89921	0.04124
3155.83926	0.04118
3153.77931	0.04109
3151.71936	0.04102
3149.65942	0.04101
3147.59947	0.04101
3145.53952	0.04100
3143.47958	0.04094
3141.41963	0.04090
3139.35968	0.04089
3137.29973	0.04090
3135.23979	0.04090
3133.17984	0.04089
3131.11989	0.04088
3129.05994	0.04084
3127.00000	0.04082
3124.94005	0.04081
3122.88010	0.04080
3120.82016	0.04076
3118.76021	0.04067
3116.70026	0.04065
3114.64031	0.04070
3112.58037	0.04071
3110.52042	0.04069
3108.46047	0.04067
3106.40052	0.04061
3104.34058	0.04052
3102.28063	0.04049
3100.22068	0.04052
3098.16073	0.04054
3096.10079	0.04055
3094.04084	0.04058
3091.98089	0.04059
3089.92095	0.04057
3087.86100	0.04051
3085.80105	0.04045
3083.74110	0.04040
3081.68116	0.04041
3079.62121	0.04044
3077.56126	0.04046
3075.50131	0.04047
3073.44137	0.04050
3071.38142	0.04045
3069.32147	0.04035
3067.26153	0.04034
3065.20158	0.04039
3063.14163	0.04040
3061.08168	0.04036
3059.02174	0.04029
3056.96179	0.04021
3054.90184	0.04022
3052.84189	0.04031
3050.78195	0.04032
3048.72200	0.04026
3046.66205	0.04021
3044.60211	0.04019
3042.54216	0.04017
3040.48221	0.04016
3038.42226	0.04018
3036.36232	0.04022
3034.30237	0.04021
3032.24242	0.04019
3030.18247	0.04022
3028.12253	0.04020
3026.06258	0.04013
3024.00263	0.04013
3021.94268	0.04022
3019.88274	0.04028
3017.82279	0.04031
3015.76284	0.04034
3013.70290	0.04038
3011.64295	0.04043
3009.58300	0.04043
3007.52305	0.04045
3005.46311	0.04053
3003.40316	0.04064
3001.34321	0.04065
2999.28326	0.04065
2997.22332	0.04073
2995.16337	0.04083
2993.10342	0.04092
2991.04348	0.04099
2988.98353	0.04097
2986.92358	0.04091
2984.86363	0.04091
2982.80369	0.04093
2980.74374	0.04091
2978.68379	0.04086
2976.62384	0.04080
2974.56390	0.04077
2972.50395	0.04072
2970.44400	0.04067
2968.38406	0.04065
2966.32411	0.04065
2964.26416	0.04061
2962.20421	0.04052
2960.14427	0.04041
2958.08432	0.04035
2956.02437	0.04033
2953.96442	0.04027
2951.90448	0.04019
2949.84453	0.04015
2947.78458	0.04018
2945.72463	0.04026
2943.66469	0.04023
2941.60474	0.04012
2939.54479	0.04009
2937.48485	0.04013
2935.42490	0.04013
2933.36495	0.04011
2931.30500	0.04012
2929.24506	0.04017
2927.18511	0.04023
2925.12516	0.04031
2923.06521	0.04038
2921.00527	0.04046
2918.94532	0.04052
2916.88537	0.04050
2914.82543	0.04041
2912.76548	0.04032
2910.70553	0.04028
2908.64558	0.04030
2906.58564	0.04032
2904.52569	0.04032
2902.46574	0.04032
2900.40579	0.04030
2898.34585	0.04020
2896.28590	0.04006
2894.22595	0.03997
2892.16601	0.03996
2890.10606	0.03994
2888.04611	0.03989
2885.98616	0.03989
2883.92622	0.03990
2881.86627	0.03985
2879.80632	0.03975
2877.74637	0.03964
2875.68643	0.03956
2873.62648	0.03946
2871.56653	0.03935
2869.50658	0.03928
2867.44664	0.03926
2865.38669	0.03930
2863.32674	0.03936
2861.26680	0.03933
2859.20685	0.03918
2857.14690	0.03908
2855.08695	0.03911
2853.02701	0.03919
2850.96706	0.03926
2848.90711	0.03925
2846.84716	0.03916
2844.78722	0.03906
2842.72727	0.03900
2840.66732	0.03893
2838.60738	0.03882
2836.54743	0.03878
2834.48748	0.03877
2832.42753	0.03871
2830.36759	0.03867
2828.30764	0.03866
2826.24769	0.03860
2824.18774	0.03854
2822.12780	0.03850
2820.06785	0.03848
2818.00790	0.03850
2815.94796	0.03852
2813.88801	0.03853
2811.82806	0.03849
2809.76811	0.03841
2807.70817	0.03834
2805.64822	0.03829
2803.58827	0.03824
2801.52832	0.03818
2799.46838	0.03816
2797.40843	0.03816
2795.34848	0.03812
2793.28853	0.03807
2791.22859	0.03804
2789.16864	0.03803
2787.10869	0.03804
2785.04875	0.03800
2782.98880	0.03795
2780.92885	0.03795
2778.86890	0.03798
2776.80896	0.03796
2774.74901	0.03787
2772.68906	0.03779
2770.62911	0.03777
2768.56917	0.03776
2766.50922	0.03774
2764.44927	0.03773
2762.38933	0.03770
2760.32938	0.03765
2758.26943	0.03762
2756.20948	0.03762
2754.14954	0.03763
2752.08959	0.03765
2750.02964	0.03767
2747.96969	0.03767
2745.90975	0.03762
2743.84980	0.03757
2741.78985	0.03758
2739.72991	0.03761
2737.66996	0.03759
2735.61001	0.03753
2733.55006	0.03748
2731.49012	0.03746
2729.43017	0.03742
2727.37022	0.03735
2725.31027	0.03733
2723.25033	0.03735
2721.19038	0.03736
2719.13043	0.03736
2717.07048	0.03730
2715.01054	0.03727
2712.95059	0.03728
2710.89064	0.03726
2708.83070	0.03719
2706.77075	0.03710
2704.71080	0.03707
2702.65085	0.03708
2700.59091	0.03706
2698.53096	0.03703
2696.47101	0.03701
2694.41106	0.03699
2692.35112	0.03694
2690.29117	0.03689
2688.23122	0.03690
2686.17128	0.03693
2684.11133	0.03688
2682.05138	0.03681
2679.99143	0.03680
2677.93149	0.03685
2675.87154	0.03687
2673.81159	0.03686
2671.75164	0.03685
2669.69170	0.03687
2667.63175	0.03700
2665.57180	0.03722
2663.51186	0.03743
2661.45191	0.03757
2659.39196	0.03763
2657.33201	0.03766
2655.27207	0.03767
2653.21212	0.03766
2651.15217	0.03763
2649.09222	0.03757
2647.03228	0.03750
2644.97233	0.03743
2642.91238	0.03735
2640.85243	0.03725
2638.79249	0.03711
2636.73254	0.03696
2634.67259	0.03686
2632.61265	0.03681
2630.55270	0.03671
2628.49275	0.03660
2626.43280	0.03653
2624.37286	0.03647
2622.31291	0.03639
2620.25296	0.03628
2618.19301	0.03616
2616.13307	0.03608
2614.07312	0.03603
2612.01317	0.03602
2609.95323	0.03598
2607.89328	0.03583
2605.83333	0.03567
2603.77338	0.03559
2601.71344	0.03557
2599.65349	0.03557
2597.59354	0.03556
2595.53359	0.03546
2593.47365	0.03528
2591.41370	0.03511
2589.35375	0.03502
2587.29381	0.03499
2585.23386	0.03497
2583.17391	0.03502
2581.11396	0.03513
2579.05402	0.03507
2576.99407	0.03482
2574.93412	0.03462
2572.87417	0.03458
2570.81423	0.03458
2568.75428	0.03457
2566.69433	0.03454
2564.63438	0.03444
2562.57444	0.03434
2560.51449	0.03431
2558.45454	0.03431
2556.39460	0.03423
2554.33465	0.03408
2552.27470	0.03401
2550.21475	0.03404
2548.15481	0.03407
2546.09486	0.03401
2544.03491	0.03389
2541.97496	0.03379
2539.91502	0.03381
2537.85507	0.03392
2535.79512	0.03396
2533.73518	0.03387
2531.67523	0.03380
2529.61528	0.03375
2527.55533	0.03362
2525.49539	0.03354
2523.43544	0.03361
2521.37549	0.03369
2519.31554	0.03362
2517.25560	0.03347
2515.19565	0.03340
2513.13570	0.03340
2511.07576	0.03333
2509.01581	0.03322
2506.95586	0.03316
2504.89591	0.03316
2502.83597	0.03313
2500.77602	0.03310
2498.71607	0.03312
2496.65612	0.03315
2494.59618	0.03317
2492.53623	0.03312
2490.47628	0.03307
2488.41633	0.03304
2486.35639	0.03298
2484.29644	0.03294
2482.23649	0.03292
2480.17655	0.03292
2478.11660	0.03292
2476.05665	0.03287
2473.99670	0.03285
2471.93676	0.03288
2469.87681	0.03289
2467.81686	0.03289
2465.75691	0.03298
2463.69697	0.03303
2461.63702	0.03294
2459.57707	0.03288
2457.51713	0.03296
2455.45718	0.03308
2453.39723	0.03309
2451.33728	0.03300
2449.27734	0.03283
2447.21739	0.03266
2445.15744	0.03258
2443.09749	0.03251
2441.03755	0.03244
2438.97760	0.03240
2436.91765	0.03232
2434.85771	0.03226
2432.79776	0.03227
2430.73781	0.03219
2428.67786	0.03203
2426.61792	0.03193
2424.55797	0.03189
2422.49802	0.03183
2420.43807	0.03183
2418.37813	0.03187
2416.31818	0.03183
2414.25823	0.03167
2412.19828	0.03159
2410.13834	0.03152
2408.07839	0.03133
2406.01844	0.03119
2403.95850	0.03124
2401.89855	0.03130
2399.83860	0.03126
2397.77865	0.03118
2395.71871	0.03111
2393.65876	0.03104
2391.59881	0.03103
2389.53886	0.03104
2387.47892	0.03102
2385.41897	0.03098
2383.35902	0.03094
2381.29908	0.03093
2379.23913	0.03100
2377.17918	0.03110
2375.11923	0.03116
2373.05929	0.03114
2370.99934	0.03108
2368.93939	0.03116
2366.87944	0.03155
2364.81950	0.03205
2362.75955	0.03241
2360.69960	0.03277
2358.63966	0.03309
2356.57971	0.03317
2354.51976	0.03316
2352.45981	0.03311
2350.39987	0.03282
2348.33992	0.03241
2346.27997	0.03230
2344.22002	0.03257
2342.16008	0.03273
2340.10013	0.03264
2338.04018	0.03259
2335.98023	0.03265
2333.92029	0.03269
2331.86034	0.03288
2329.80039	0.03355
2327.74045	0.03476
2325.68050	0.03569
2323.62055	0.03549
2321.56060	0.03473
2319.50066	0.03418
2317.44071	0.03383
2315.38076	0.03357
2313.32081	0.03337
2311.26087	0.03324
2309.20092	0.03317
2307.14097	0.03309
2305.08103	0.03292
2303.02108	0.03270
2300.96113	0.03260
2298.90118	0.03268
2296.84124	0.03291
2294.78129	0.03318
2292.72134	0.03341
2290.66139	0.03359
2288.60145	0.03372
2286.54150	0.03363
2284.48155	0.03323
2282.42161	0.03271
2280.36166	0.03234
2278.30171	0.03214
2276.24176	0.03205
2274.18182	0.03200
2272.12187	0.03187
2270.06192	0.03152
2268.00197	0.03104
2265.94203	0.03067
2263.88208	0.03057
2261.82213	0.03071
2259.76218	0.03090
2257.70224	0.03078
2255.64229	0.03034
2253.58234	0.03007
2251.52240	0.03015
2249.46245	0.03031
2247.40250	0.03044
2245.34255	0.03057
2243.28261	0.03052
2241.22266	0.03032
2239.16271	0.03023
2237.10276	0.03025
2235.04282	0.03008
2232.98287	0.02984
2230.92292	0.02980
2228.86298	0.02987
2226.80303	0.02981
2224.74308	0.02967
2222.68313	0.02955
2220.62319	0.02934
2218.56324	0.02909
2216.50329	0.02896
2214.44334	0.02899
2212.38340	0.02899
2210.32345	0.02905
2208.26350	0.02925
2206.20356	0.02932
2204.14361	0.02916
2202.08366	0.02899
2200.02371	0.02904
2197.96377	0.02914
2195.90382	0.02891
2193.84387	0.02873
2191.78392	0.02887
2189.72398	0.02889
2187.66403	0.02873
2185.60408	0.02844
2183.54413	0.02773
2181.48419	0.02734
2179.42424	0.02755
2177.36429	0.02734
2175.30435	0.02711
2173.24440	0.02775
2171.18445	0.02873
2169.12450	0.02945
2167.06456	0.02996
2165.00461	0.03043
2162.94466	0.02952
2160.88471	0.02530
2158.82477	0.02067
2156.76482	0.01983
2154.70487	0.02114
2152.64493	0.02238
2150.58498	0.02322
2148.52503	0.02349
2146.46508	0.02339
2144.40514	0.02336
2142.34519	0.02357
2140.28524	0.02388
2138.22529	0.02372
2136.16535	0.02291
2134.10540	0.02241
2132.04545	0.02288
2129.98551	0.02385
2127.92556	0.02477
2125.86561	0.02546
2123.80566	0.02592
2121.74572	0.02634
2119.68577	0.02691
2117.62582	0.02757
2115.56587	0.02797
2113.50593	0.02805
2111.44598	0.02810
2109.38603	0.02816
2107.32608	0.02806
2105.26614	0.02787
2103.20619	0.02773
2101.14624	0.02762
2099.08630	0.02742
2097.02635	0.02704
2094.96640	0.02663
2092.90645	0.02671
2090.84651	0.02730
2088.78656	0.02785
2086.72661	0.02805
2084.66666	0.02806
2082.60672	0.02808
2080.54677	0.02822
2078.48682	0.02840
2076.42688	0.02835
2074.36693	0.02815
2072.30698	0.02802
2070.24703	0.02787
2068.18709	0.02766
2066.12714	0.02751
2064.06719	0.02753
2062.00724	0.02767
2059.94730	0.02776
2057.88735	0.02777
2055.82740	0.02793
2053.76746	0.02871
2051.70751	0.02947
2049.64756	0.02896
2047.58761	0.02789
2045.52767	0.02737
2043.46772	0.02735
2041.40777	0.02763
2039.34782	0.02790
2037.28788	0.02775
2035.22793	0.02713
2033.16798	0.02651
2031.10803	0.02590
2029.04809	0.02527
2026.98814	0.02516
2024.92819	0.02566
2022.86825	0.02618
2020.80830	0.02625
2018.74835	0.02602
2016.68840	0.02591
2014.62846	0.02588
2012.56851	0.02574
2010.50856	0.02535
2008.44861	0.02451
2006.38867	0.02380
2004.32872	0.02407
2002.26877	0.02512
2000.20883	0.02619
1998.14888	0.02676
1996.08893	0.02689
1994.02898	0.02697
1991.96904	0.02713
1989.90909	0.02725
1987.84914	0.02757
1985.78919	0.02825
1983.72925	0.02917
1981.66930	0.02968
1979.60935	0.02845
1977.54941	0.02607
1975.48946	0.02481
1973.42951	0.02481
1971.36956	0.02490
1969.30962	0.02473
1967.24967	0.02453
1965.18972	0.02440
1963.12977	0.02418
1961.06983	0.02367
1959.00988	0.02339
1956.94993	0.02384
1954.88998	0.02453
1952.83004	0.02492
1950.77009	0.02489
1948.71014	0.02460
1946.65020	0.02442
1944.59025	0.02452
1942.53030	0.02480
1940.47035	0.02493
1938.41041	0.02491
1936.35046	0.02492
1934.29051	0.02494
1932.23056	0.02506
1930.17062	0.02524
1928.11067	0.02529
1926.05072	0.02524
1923.99078	0.02533
1921.93083	0.02551
1919.87088	0.02557
1917.81093	0.02567
1915.75099	0.02588
1913.69104	0.02599
1911.63109	0.02599
1909.57114	0.02602
1907.51120	0.02611
1905.45125	0.02633
1903.39130	0.02659
1901.33136	0.02669
1899.27141	0.02658
1897.21146	0.02641
1895.15151	0.02643
1893.09157	0.02660
1891.03162	0.02669
1888.97167	0.02676
1886.91172	0.02680
1884.85178	0.02682
1882.79183	0.02685
1880.73188	0.02692
1878.67193	0.02701
1876.61199	0.02703
1874.55204	0.02697
1872.49209	0.02688
1870.43215	0.02693
1868.37220	0.02717
1866.31225	0.02722
1864.25230	0.02710
1862.19236	0.02699
1860.13241	0.02689
1858.07246	0.02682
1856.01251	0.02674
1853.95257	0.02662
1851.89262	0.02650
1849.83267	0.02637
1847.77273	0.02621
1845.71278	0.02612
1843.65283	0.02625
1841.59288	0.02626
1839.53294	0.02613
1837.47299	0.02611
1835.41304	0.02609
1833.35309	0.02595
1831.29315	0.02599
1829.23320	0.02625
1827.17325	0.02628
1825.11331	0.02623
1823.05336	0.02623
1820.99341	0.02596
1818.93346	0.02556
1816.87352	0.02546
1814.81357	0.02570
1812.75362	0.02602
1810.69367	0.02630
1808.63373	0.02648
1806.57378	0.02651
1804.51383	0.02648
1802.45388	0.02656
1800.39394	0.02677
1798.33399	0.02687
1796.27404	0.02672
1794.21410	0.02653
1792.15415	0.02668
1790.09420	0.02689
1788.03425	0.02680
1785.97431	0.02673
1783.91436	0.02674
1781.85441	0.02671
1779.79446	0.02668
1777.73452	0.02656
1775.67457	0.02638
1773.61462	0.02643
1771.55468	0.02672
1769.49473	0.02680
1767.43478	0.02669
1765.37483	0.02651
1763.31489	0.02642
1761.25494	0.02655
1759.19499	0.02663
1757.13504	0.02664
1755.07510	0.02660
1753.01515	0.02645
1750.95520	0.02657
1748.89526	0.02691
1746.83531	0.02695
1744.77536	0.02683
1742.71541	0.02674
1740.65547	0.02675
1738.59552	0.02678
1736.53557	0.02668
1734.47562	0.02686
1732.41568	0.02729
1730.35573	0.02727
1728.29578	0.02716
1726.23583	0.02702
1724.17589	0.02694
1722.11594	0.02691
1720.05599	0.02693
1717.99605	0.02736
1715.93610	0.02795
1713.87615	0.02794
1711.81620	0.02770
1709.75626	0.02754
1707.69631	0.02758
1705.63636	0.02782
1703.57641	0.02785
1701.51647	0.02788
1699.45652	0.02832
1697.39657	0.02854
1695.33663	0.02858
1693.27668	0.02851
1691.21673	0.02836
1689.15678	0.02839
1687.09684	0.02838
1685.03689	0.02853
1682.97694	0.02901
1680.91699	0.02903
1678.85705	0.02884
1676.79710	0.02877
1674.73715	0.02891
1672.67721	0.02899
1670.61726	0.02906
1668.55731	0.02926
1666.49736	0.02915
1664.43742	0.02900
1662.37747	0.02914
1660.31752	0.02923
1658.25757	0.02908
1656.19763	0.02888
1654.13768	0.02915
1652.07773	0.02997
1650.01778	0.02989
1647.95784	0.02973
1645.89789	0.02994
1643.83794	0.02986
1641.77800	0.02966
1639.71805	0.02956
1637.65810	0.02967
1635.59815	0.03017
1633.53821	0.03037
1631.47826	0.03012
1629.41831	0.03000
1627.35836	0.03007
1625.29842	0.03013
1623.23847	0.03027
1621.17852	0.03036
1619.11858	0.03027
1617.05863	0.03041
1614.99868	0.03064
1612.93873	0.03055
1610.87879	0.03043
1608.81884	0.03043
1606.75889	0.03040
1604.69894	0.03034
1602.63900	0.03028
1600.57905	0.03023
1598.51910	0.03019
1596.45916	0.03014
1594.39921	0.03008
1592.33926	0.02998
1590.27931	0.02989
1588.21937	0.02983
1586.15942	0.02973
1584.09947	0.02961
1582.03952	0.02952
1579.97958	0.02939
1577.91963	0.02933
1575.85968	0.02953
1573.79973	0.02954
1571.73979	0.02928
1569.67984	0.02920
1567.61989	0.02916
1565.55995	0.02905
1563.50000	0.02889
1561.44005	0.02863
1559.38010	0.02886
1557.32016	0.02949
1555.26021	0.02930
1553.20026	0.02899
1551.14031	0.02877
1549.08037	0.02862
1547.02042	0.02848
1544.96047	0.02841
1542.90053	0.02850
1540.84058	0.02886
1538.78063	0.02912
1536.72068	0.02878
1534.66074	0.02851
1532.60079	0.02856
1530.54084	0.02849
1528.48089	0.02833
1526.42095	0.02835
1524.36100	0.02838
1522.30105	0.02847
1520.24111	0.02859
1518.18116	0.02840
1516.12121	0.02818
1514.06126	0.02800
1512.00132	0.02780
1509.94137	0.02765
1507.88142	0.02781
1505.82147	0.02825
1503.76153	0.02801
1501.70158	0.02759
1499.64163	0.02741
1497.58168	0.02756
1495.52174	0.02768
1493.46179	0.02749
1491.40184	0.02733
1489.34190	0.02754
1487.28195	0.02772
1485.22200	0.02758
1483.16205	0.02736
1481.10211	0.02725
1479.04216	0.02723
1476.98221	0.02727
1474.92226	0.02744
1472.86232	0.02777
1470.80237	0.02787
1468.74242	0.02762
1466.68248	0.02743
1464.62253	0.02751
1462.56258	0.02750
1460.50263	0.02736
1458.44269	0.02755
1456.38274	0.02812
1454.32279	0.02810
1452.26284	0.02785
1450.20290	0.02774
1448.14295	0.02775
1446.08300	0.02776
1444.02306	0.02769
1441.96311	0.02760
1439.90316	0.02750
1437.84321	0.02757
1435.78327	0.02786
1433.72332	0.02788
1431.66337	0.02778
1429.60342	0.02781
1427.54348	0.02779
1425.48353	0.02775
1423.42358	0.02779
1421.36363	0.02781
1419.30369	0.02793
1417.24374	0.02808
1415.18379	0.02801
1413.12385	0.02793
1411.06390	0.02791
1409.00395	0.02784
1406.94400	0.02779
1404.88406	0.02781
1402.82411	0.02774
1400.76416	0.02764
1398.70421	0.02767
1396.64427	0.02774
1394.58432	0.02781
1392.52437	0.02769
1390.46443	0.02742
1388.40448	0.02733
1386.34453	0.02743
1384.28458	0.02744
1382.22464	0.02735
1380.16469	0.02730
1378.10474	0.02730
1376.04479	0.02733
1373.98485	0.02734
1371.92490	0.02724
1369.86495	0.02710
1367.80501	0.02703
1365.74506	0.02698
1363.68511	0.02696
1361.62516	0.02697
1359.56522	0.02693
1357.50527	0.02687
1355.44532	0.02682
1353.38537	0.02675
1351.32543	0.02667
1349.26548	0.02659
1347.20553	0.02654
1345.14558	0.02654
1343.08564	0.02654
1341.02569	0.02656
1338.96574	0.02663
1336.90580	0.02665
1334.84585	0.02661
1332.78590	0.02657
1330.72595	0.02651
1328.66601	0.02646
1326.60606	0.02643
1324.54611	0.02641
1322.48616	0.02645
1320.42622	0.02656
1318.36627	0.02668
1316.30632	0.02674
1314.24638	0.02676
1312.18643	0.02677
1310.12648	0.02675
1308.06653	0.02675
1306.00659	0.02684
1303.94664	0.02697
1301.88669	0.02709
1299.82674	0.02717
1297.76680	0.02724
1295.70685	0.02736
1293.64690	0.02751
1291.58696	0.02768
1289.52701	0.02786
1287.46706	0.02807
1285.40711	0.02831
1283.34717	0.02854
1281.28722	0.02873
1279.22727	0.02890
1277.16732	0.02908
1275.10738	0.02923
1273.04743	0.02937
1270.98748	0.02952
1268.92753	0.02965
1266.86759	0.02978
1264.80764	0.02994
1262.74769	0.03018
1260.68775	0.03044
1258.62780	0.03064
1256.56785	0.03085
1254.50790	0.03117
1252.44796	0.03158
1250.38801	0.03204
1248.32806	0.03248
1246.26811	0.03287
1244.20817	0.03330
1242.14822	0.03378
1240.08827	0.03424
1238.02833	0.03469
1235.96838	0.03525
1233.90843	0.03592
1231.84848	0.03668
1229.78854	0.03750
1227.72859	0.03845
1225.66864	0.03964
1223.60869	0.04114
1221.54875	0.04291
1219.48880	0.04491
1217.42885	0.04708
1215.36891	0.04932
1213.30896	0.05158
1211.24901	0.05384
1209.18906	0.05600
1207.12912	0.05802
1205.06917	0.05993
1203.00922	0.06176
1200.94927	0.06345
1198.88933	0.06495
1196.82938	0.06630
1194.76943	0.06755
1192.70949	0.06868
1190.64954	0.06966
1188.58959	0.07059
1186.52964	0.07159
1184.46970	0.07261
1182.40975	0.07365
1180.34980	0.07484
1178.28985	0.07630
1176.22991	0.07807
1174.16996	0.08021
1172.11001	0.08270
1170.05006	0.08552
1167.99012	0.08862
1165.93017	0.09172
1163.87022	0.09410
1161.81028	0.09485
1159.75033	0.09377
1157.69038	0.09189
1155.63043	0.09066
1153.57049	0.09067
1151.51054	0.09167
1149.45059	0.09321
1147.39064	0.09499
1145.33070	0.09693
1143.27075	0.09909
1141.21080	0.10142
1139.15086	0.10388
1137.09091	0.10645
1135.03096	0.10920
1132.97101	0.11215
1130.91107	0.11526
1128.85112	0.11851
1126.79117	0.12189
1124.73122	0.12539
1122.67128	0.12898
1120.61133	0.13268
1118.55138	0.13651
1116.49144	0.14050
1114.43149	0.14460
1112.37154	0.14880
1110.31159	0.15318
1108.25165	0.15769
1106.19170	0.16228
1104.13175	0.16697
1102.07180	0.17174
1100.01186	0.17661
1097.95191	0.18162
1095.89196	0.18661
1093.83201	0.19145
1091.77207	0.19619
1089.71212	0.20077
1087.65217	0.20489
1085.59223	0.20827
1083.53228	0.21080
1081.47233	0.21244
1079.41238	0.21314
1077.35244	0.21278
1075.29249	0.21125
1073.23254	0.20867
1071.17259	0.20557
1069.11265	0.20266
1067.05270	0.20028
1064.99275	0.19802
1062.93281	0.19542
1060.87286	0.19240
1058.81291	0.18898
1056.75296	0.18519
1054.69302	0.18127
1052.63307	0.17751
1050.57312	0.17401
1048.51317	0.17079
1046.45323	0.16784
1044.39328	0.16523
1042.33333	0.16298
1040.27339	0.16084
1038.21344	0.15870
1036.15349	0.15660
1034.09354	0.15452
1032.03360	0.15245
1029.97365	0.15038
1027.91370	0.14834
1025.85375	0.14632
1023.79381	0.14437
1021.73386	0.14259
1019.67391	0.14095
1017.61396	0.13943
1015.55402	0.13798
1013.49407	0.13657
1011.43412	0.13522
1009.37418	0.13389
1007.31423	0.13252
1005.25428	0.13106
1003.19433	0.12946
1001.13439	0.12782
999.07444	0.12619
997.01449	0.12460
994.95454	0.12304
992.89460	0.12152
990.83465	0.12005
988.77470	0.11860
986.71476	0.11715
984.65481	0.11576
982.59486	0.11432
980.53491	0.11279
978.47497	0.11129
976.41502	0.10991
974.35507	0.10858
972.29512	0.10723
970.23518	0.10583
968.17523	0.10450
966.11528	0.10322
964.05534	0.10195
961.99539	0.10066
959.93544	0.09935
957.87549	0.09812
955.81555	0.09694
953.75560	0.09573
951.69565	0.09455
949.63570	0.09348
947.57576	0.09245
945.51581	0.09138
943.45586	0.09032
941.39591	0.08935
939.33597	0.08838
937.27602	0.08730
935.21607	0.08618
933.15613	0.08508
931.09618	0.08401
929.03623	0.08292
926.97628	0.08181
924.91634	0.08077
922.85639	0.07983
920.79644	0.07888
918.73649	0.07793
916.67655	0.07704
914.61660	0.07611
912.55665	0.07507
910.49671	0.07395
908.43676	0.07273
906.37681	0.07141
904.31686	0.07004
902.25692	0.06873
900.19697	0.06749
898.13702	0.06627
896.07707	0.06508
894.01713	0.06387
891.95718	0.06259
889.89723	0.06134
887.83729	0.06021
885.77734	0.05914
883.71739	0.05805
881.65744	0.05694
879.59750	0.05583
877.53755	0.05469
875.47760	0.05356
873.41765	0.05249
871.35771	0.05143
869.29776	0.05025
867.23781	0.04907
865.17786	0.04801
863.11792	0.04705
861.05797	0.04613
858.99802	0.04526
856.93808	0.04444
854.87813	0.04363
852.81818	0.04285
850.75823	0.04211
848.69829	0.04144
846.63834	0.04083
844.57839	0.04033
842.51844	0.04001
840.45850	0.03985
838.39855	0.03967
836.33860	0.03947
834.27866	0.03944
832.21871	0.03960
830.15876	0.03987
828.09881	0.04020
826.03887	0.04065
823.97892	0.04133
821.91897	0.04229
819.85902	0.04351
817.79908	0.04520
815.73913	0.04760
813.67918	0.05095
811.61924	0.05578
809.55929	0.06273
807.49934	0.07217
805.43939	0.08374
803.37945	0.09615
801.31950	0.10766
799.25955	0.11623
797.19960	0.11999
795.13966	0.11891
793.07971	0.11523
791.01976	0.11167
788.95981	0.11002
786.89987	0.11132
784.83992	0.11581
782.77997	0.12235
780.72003	0.12844
778.66008	0.13131
776.60013	0.12954
774.54018	0.12408
772.48024	0.11727
770.42029	0.11091
768.36034	0.10551
766.30039	0.10080
764.24045	0.09655
762.18050	0.09281
760.12055	0.08953
758.06061	0.08646
756.00066	0.08354
753.94071	0.08094
751.88076	0.07859
749.82082	0.07634
747.76087	0.07424
745.70092	0.07233
743.64097	0.07054
741.58103	0.06887
739.52108	0.06736
737.46113	0.06592
735.40119	0.06449
733.34124	0.06309
731.28129	0.06181
729.22134	0.06068
727.16140	0.05967
725.10145	0.05876
723.04150	0.05791
720.98155	0.05713
718.92161	0.05648
716.86166	0.05588
714.80171	0.05540
712.74176	0.05521
710.68182	0.05539
708.62187	0.05588
706.56192	0.05681
704.50198	0.05849
702.44203	0.06144
700.38208	0.06645
698.32213	0.07337
696.26219	0.07963
694.20224	0.08179
692.14229	0.07921
690.08234	0.07424
688.02240	0.06916
685.96245	0.06487
683.90250	0.06137
681.84256	0.05846
679.78261	0.05596
677.72266	0.05382
675.66271	0.05203
673.60277	0.05062
671.54282	0.04955
669.48287	0.04843
667.42292	0.04684
665.36298	0.04547
663.30303	0.04444
661.24308	0.04353
659.18314	0.04285
657.12319	0.04221
655.06324	0.04150
653.00329	0.04085
650.94335	0.04034
648.88340	0.03980
646.82345	0.03920
644.76350	0.03864
642.70356	0.03816
640.64361	0.03771
638.58366	0.03722
636.52371	0.03670
634.46377	0.03624
632.40382	0.03582
630.34387	0.03531
628.28393	0.03482
626.22398	0.03446
624.16403	0.03417
622.10408	0.03396
620.04414	0.03380
617.98419	0.03365
615.92424	0.03355
613.86429	0.03342
611.80435	0.03319
609.74440	0.03293
607.68445	0.03267
605.62451	0.03253
603.56456	0.03245
601.50461	0.03229
599.44466	0.03217
597.38472	0.03209
595.32477	0.03207
593.26482	0.03210
591.20487	0.03217
589.14493	0.03225
587.08498	0.03236
585.02503	0.03242
582.96509	0.03237
580.90514	0.03228
578.84519	0.03230
576.78524	0.03243
574.72530	0.03259
572.66535	0.03271
570.60540	0.03268
568.54545	0.03268
566.48551	0.03297
564.42556	0.03339
562.36561	0.03374
560.30566	0.03416
558.24572	0.03483
556.18577	0.03596
554.12582	0.03730
552.06588	0.03862
550.00593	0.04030
547.94598	0.04280
545.88603	0.04614
543.82609	0.05000
541.76614	0.05431
539.70619	0.05924
537.64624	0.06471
535.58630	0.07052
533.52635	0.07650
531.46640	0.08223
529.40646	0.08723
527.34651	0.09160
525.28656	0.09563
523.22661	0.09868
521.16667	0.10048
519.10672	0.10129
517.04677	0.10106
514.98682	0.09984
512.92688	0.09775
510.86693	0.09505
508.80698	0.09241
506.74704	0.09088
504.68709	0.09156
502.62714	0.09464
500.56719	0.09918
498.50725	0.10448
496.44730	0.11048
494.38735	0.11677
492.32740	0.12312
490.26746	0.12938
488.20751	0.13532
486.14756	0.14135
484.08761	0.14810
482.02767	0.15520
479.96772	0.16198
477.90777	0.16881
475.84783	0.17610
473.78788	0.18406
471.72793	0.19233
469.66798	0.19953
467.60804	0.20625
465.54809	0.21307
463.48814	0.21872
461.42819	0.22254
459.36825	0.22431
457.30830	0.22331
455.24835	0.21917
453.18841	0.21249
451.12846	0.20432
449.06851	0.19658
447.00856	0.18986
444.94862	0.18374
442.88867	0.17769
440.82872	0.17206
438.76877	0.16765
436.70883	0.16417
434.64888	0.16067
432.58893	0.15671
430.52899	0.15276
428.46904	0.14871
426.40909	0.14408
424.34914	0.13940
422.28920	0.13503
420.22925	0.12966
418.16930	0.12297
416.10935	0.11764
414.04941	0.11229
411.98946	0.10573
409.92951	0.09872
407.86956	0.09250
405.80962	0.09114
403.74967	0.09865
401.68972	0.11459
399.62978	0.13733
