3996.29776	0.02630
3994.23781	0.02634
3992.17786	0.02641
3990.11791	0.02648
3988.05797	0.02647
3985.99802	0.02639
3983.93807	0.02640
3981.87813	0.02650
3979.81818	0.02648
3977.75823	0.02637
3975.69828	0.02635
3973.63834	0.02635
3971.57839	0.02627
3969.51844	0.02624
3967.45849	0.02623
3965.39855	0.02614
3963.33860	0.02614
3961.27865	0.02627
3959.21870	0.02631
3957.15876	0.02626
3955.09881	0.02618
3953.03886	0.02604
3950.97892	0.02597
3948.91897	0.02611
3946.85902	0.02620
3944.79907	0.02616
3942.73913	0.02632
3940.67918	0.02647
3938.61923	0.02634
3936.55928	0.02612
3934.49934	0.02601
3932.43939	0.02616
3930.37944	0.02637
3928.31950	0.02628
3926.25955	0.02610
3924.19960	0.02613
3922.13965	0.02609
3920.07971	0.02587
3918.01976	0.02584
3915.95981	0.02596
3913.89986	0.02596
3911.83992	0.02588
3909.77997	0.02575
3907.72002	0.02554
3905.66008	0.02552
3903.60013	0.02578
3901.54018	0.02607
3899.48023	0.02626
3897.42029	0.02621
3895.36034	0.02583
3893.30039	0.02563
3891.24044	0.02595
3889.18050	0.02598
3887.12055	0.02569
3885.06060	0.02581
3883.00065	0.02593
3880.94071	0.02610
3878.88076	0.02628
3876.82081	0.02595
3874.76087	0.02573
3872.70092	0.02577
3870.64097	0.02597
3868.58102	0.02618
3866.52108	0.02603
3864.46113	0.02607
3862.40118	0.02621
3860.34123	0.02596
3858.28129	0.02553
3856.22134	0.02518
3854.16139	0.02572
3852.10145	0.02694
3850.04150	0.02676
3847.98155	0.02600
3845.92160	0.02552
3843.86166	0.02547
3841.80171	0.02559
3839.74176	0.02566
3837.68181	0.02593
3835.62187	0.02609
3833.56192	0.02601
3831.50197	0.02589
3829.44203	0.02569
3827.38208	0.02557
3825.32213	0.02548
3823.26218	0.02529
3821.20224	0.02568
3819.14229	0.02599
3817.08234	0.02589
3815.02239	0.02611
3812.96245	0.02588
3810.90250	0.02527
3808.84255	0.02508
3806.78260	0.02551
3804.72266	0.02556
3802.66271	0.02541
3800.60276	0.02579
3798.54282	0.02587
3796.48287	0.02585
3794.42292	0.02583
3792.36297	0.02552
3790.30303	0.02531
3788.24308	0.02528
3786.18313	0.02526
3784.12318	0.02526
3782.06324	0.02513
3780.00329	0.02512
3777.94334	0.02532
3775.88340	0.02529
3773.82345	0.02503
3771.76350	0.02492
3769.70355	0.02520
3767.64361	0.02544
3765.58366	0.02550
3763.52371	0.02539
3761.46376	0.02513
3759.40382	0.02517
3757.34387	0.02523
3755.28392	0.02488
3753.22398	0.02468
3751.16403	0.02533
3749.10408	0.02595
3747.04413	0.02565
3744.98419	0.02574
3742.92424	0.02607
3740.86429	0.02547
3738.80434	0.02478
3736.74440	0.02483
3734.68445	0.02559
3732.62450	0.02604
3730.56455	0.02576
3728.50461	0.02527
3726.44466	0.02507
3724.38471	0.02516
3722.32477	0.02522
3720.26482	0.02517
3718.20487	0.02489
3716.14492	0.02443
3714.08498	0.02420
3712.02503	0.02482
3709.96508	0.02564
3707.90513	0.02547
3705.84519	0.02490
3703.78524	0.02463
3701.72529	0.02495
3699.66535	0.02529
3697.60540	0.02530
3695.54545	0.02523
3693.48550	0.02508
3691.42556	0.02509
3689.36561	0.02562
3687.30566	0.02595
3685.24571	0.02559
3683.18577	0.02520
3681.12582	0.02500
3679.06587	0.02480
3677.00593	0.02502
3674.94598	0.02597
3672.88603	0.02599
3670.82608	0.02568
3668.76614	0.02599
3666.70619	0.02588
3664.64624	0.02546
3662.58629	0.02522
3660.52635	0.02513
3658.46640	0.02514
3656.40645	0.02535
3654.34651	0.02519
3652.28656	0.02474
3650.22661	0.02509
3648.16666	0.02605
3646.10672	0.02602
3644.04677	0.02554
3641.98682	0.02534
3639.92687	0.02533
3637.86693	0.02526
3635.80698	0.02516
3633.74703	0.02505
3631.68708	0.02486
3629.62714	0.02519
3627.56719	0.02601
3625.50724	0.02587
3623.44730	0.02525
3621.38735	0.02491
3619.32740	0.02519
3617.26745	0.02547
3615.20751	0.02535
3613.14756	0.02539
3611.08761	0.02551
3609.02766	0.02566
3606.96772	0.02577
3604.90777	0.02547
3602.84782	0.02504
3600.78788	0.02500
3598.72793	0.02514
3596.66798	0.02522
3594.60803	0.02534
3592.54809	0.02523
3590.48814	0.02487
3588.42819	0.02491
3586.36824	0.02530
3584.30830	0.02522
3582.24835	0.02494
3580.18840	0.02484
3578.12846	0.02491
3576.06851	0.02501
3574.00856	0.02501
3571.94861	0.02485
3569.88867	0.02467
3567.82872	0.02503
3565.76877	0.02559
3563.70882	0.02549
3561.64888	0.02524
3559.58893	0.02522
3557.52898	0.02518
3555.46903	0.02507
3553.40909	0.02505
3551.34914	0.02508
3549.28919	0.02506
3547.22925	0.02520
3545.16930	0.02546
3543.10935	0.02551
3541.04940	0.02537
3538.98946	0.02527
3536.92951	0.02530
3534.86956	0.02533
3532.80961	0.02529
3530.74967	0.02525
3528.68972	0.02533
3526.62977	0.02554
3524.56983	0.02571
3522.50988	0.02564
3520.44993	0.02544
3518.38998	0.02541
3516.33004	0.02547
3514.27009	0.02541
3512.21014	0.02536
3510.15019	0.02549
3508.09025	0.02567
3506.03030	0.02568
3503.97035	0.02563
3501.91041	0.02566
3499.85046	0.02564
3497.79051	0.02556
3495.73056	0.02553
3493.67062	0.02555
3491.61067	0.02560
3489.55072	0.02563
3487.49077	0.02561
3485.43083	0.02556
3483.37088	0.02561
3481.31093	0.02576
3479.25098	0.02584
3477.19104	0.02579
3475.13109	0.02572
3473.07114	0.02569
3471.01120	0.02570
3468.95125	0.02569
3466.89130	0.02565
3464.83135	0.02570
3462.77141	0.02587
3460.71146	0.02600
3458.65151	0.02601
3456.59156	0.02595
3454.53162	0.02593
3452.47167	0.02594
3450.41172	0.02592
3448.35178	0.02594
3446.29183	0.02600
3444.23188	0.02603
3442.17193	0.02610
3440.11199	0.02611
3438.05204	0.02596
3435.99209	0.02582
3433.93214	0.02575
3431.87220	0.02572
3429.81225	0.02574
3427.75230	0.02584
3425.69236	0.02593
3423.63241	0.02597
3421.57246	0.02596
3419.51251	0.02594
3417.45257	0.02596
3415.39262	0.02601
3413.33267	0.02605
3411.27272	0.02605
3409.21278	0.02602
3407.15283	0.02597
3405.09288	0.02591
3403.03293	0.02586
3400.97299	0.02586
3398.91304	0.02589
3396.85309	0.02590
3394.79315	0.02589
3392.73320	0.02591
3390.67325	0.02596
3388.61330	0.02603
3386.55336	0.02611
3384.49341	0.02609
3382.43346	0.02599
3380.37351	0.02595
3378.31357	0.02588
3376.25362	0.02581
3374.19367	0.02586
3372.13373	0.02597
3370.07378	0.02598
3368.01383	0.02592
3365.95388	0.02586
3363.89394	0.02583
3361.83399	0.02589
3359.77404	0.02596
3357.71409	0.02591
3355.65415	0.02584
3353.59420	0.02583
3351.53425	0.02582
3349.47431	0.02580
3347.41436	0.02582
3345.35441	0.02586
3343.29446	0.02589
3341.23452	0.02589
3339.17457	0.02587
3337.11462	0.02591
3335.05467	0.02594
3332.99473	0.02595
3330.93478	0.02594
3328.87483	0.02587
3326.81488	0.02576
3324.75494	0.02576
3322.69499	0.02582
3320.63504	0.02584
3318.57510	0.02587
3316.51515	0.02589
3314.45520	0.02588
3312.39525	0.02586
3310.33531	0.02584
3308.27536	0.02588
3306.21541	0.02594
3304.15546	0.02592
3302.09552	0.02587
3300.03557	0.02581
3297.97562	0.02575
3295.91568	0.02570
3293.85573	0.02567
3291.79578	0.02570
3289.73583	0.02575
3287.67589	0.02574
3285.61594	0.02571
3283.55599	0.02566
3281.49604	0.02561
3279.43610	0.02566
3277.37615	0.02575
3275.31620	0.02578
3273.25626	0.02577
3271.19631	0.02574
3269.13636	0.02569
3267.07641	0.02566
3265.01647	0.02570
3262.95652	0.02571
3260.89657	0.02567
3258.83662	0.02566
3256.77668	0.02564
3254.71673	0.02557
3252.65678	0.02551
3250.59683	0.02548
3248.53689	0.02547
3246.47694	0.02548
3244.41699	0.02549
3242.35705	0.02545
3240.29710	0.02541
3238.23715	0.02542
3236.17720	0.02545
3234.11726	0.02548
3232.05731	0.02547
3229.99736	0.02545
3227.93741	0.02539
3225.87747	0.02529
3223.81752	0.02524
3221.75757	0.02528
3219.69763	0.02531
3217.63768	0.02529
3215.57773	0.02527
3213.51778	0.02527
3211.45784	0.02521
3209.39789	0.02512
3207.33794	0.02512
3205.27799	0.02511
3203.21805	0.02506
3201.15810	0.02503
3199.09815	0.02507
3197.03821	0.02509
3194.97826	0.02505
3192.91831	0.02504
3190.85836	0.02504
3188.79842	0.02500
3186.73847	0.02496
3184.67852	0.02496
3182.61857	0.02493
3180.55863	0.02482
3178.49868	0.02471
3176.43873	0.02469
3174.37878	0.02473
3172.31884	0.02474
3170.25889	0.02472
3168.19894	0.02470
3166.13900	0.02470
3164.07905	0.02468
3162.01910	0.02467
3159.95915	0.02471
3157.89921	0.02470
3155.83926	0.02467
3153.77931	0.02466
3151.71936	0.02462
3149.65942	0.02449
3147.59947	0.02438
3145.53952	0.02440
3143.47958	0.02448
3141.41963	0.02452
3139.35968	0.02445
3137.29973	0.02432
3135.23979	0.02429
3133.17984	0.02434
3131.11989	0.02431
3129.05994	0.02427
3127.00000	0.02429
3124.94005	0.02430
3122.88010	0.02426
3120.82016	0.02420
3118.76021	0.02414
3116.70026	0.02413
3114.64031	0.02417
3112.58037	0.02416
3110.52042	0.02410
3108.46047	0.02405
3106.40052	0.02404
3104.34058	0.02407
3102.28063	0.02410
3100.22068	0.02410
3098.16073	0.02408
3096.10079	0.02407
3094.04084	0.02410
3091.98089	0.02412
3089.92095	0.02410
3087.86100	0.02406
3085.80105	0.02400
3083.74110	0.02398
3081.68116	0.02401
3079.62121	0.02402
3077.56126	0.02403
3075.50131	0.02406
3073.44137	0.02408
3071.38142	0.02405
3069.32147	0.02400
3067.26153	0.02402
3065.20158	0.02409
3063.14163	0.02405
3061.08168	0.02394
3059.02174	0.02388
3056.96179	0.02389
3054.90184	0.02391
3052.84189	0.02389
3050.78195	0.02387
3048.72200	0.02387
3046.66205	0.02386
3044.60211	0.02383
3042.54216	0.02379
3040.48221	0.02378
3038.42226	0.02385
3036.36232	0.02394
3034.30237	0.02395
3032.24242	0.02393
3030.18247	0.02392
3028.12253	0.02391
3026.06258	0.02393
3024.00263	0.02397
3021.94268	0.02401
3019.88274	0.02410
3017.82279	0.02420
3015.76284	0.02422
3013.70290	0.02423
3011.64295	0.02427
3009.58300	0.02431
3007.52305	0.02440
3005.46311	0.02455
3003.40316	0.02471
3001.34321	0.02480
2999.28326	0.02483
2997.22332	0.02487
2995.16337	0.02492
2993.10342	0.02500
2991.04348	0.02514
2988.98353	0.02522
2986.92358	0.02520
2984.86363	0.02519
2982.80369	0.02520
2980.74374	0.02519
2978.68379	0.02516
2976.62384	0.02515
2974.56390	0.02520
2972.50395	0.02522
2970.44400	0.02521
2968.38406	0.02517
2966.32411	0.02508
2964.26416	0.02499
2962.20421	0.02487
2960.14427	0.02479
2958.08432	0.02476
2956.02437	0.02470
2953.96442	0.02460
2951.90448	0.02452
2949.84453	0.02445
2947.78458	0.02443
2945.72463	0.02447
2943.66469	0.02449
2941.60474	0.02445
2939.54479	0.02443
2937.48485	0.02447
2935.42490	0.02450
2933.36495	0.02450
2931.30500	0.02456
2929.24506	0.02468
2927.18511	0.02479
2925.12516	0.02486
2923.06521	0.02491
2921.00527	0.02495
2918.94532	0.02497
2916.88537	0.02492
2914.82543	0.02484
2912.76548	0.02480
2910.70553	0.02478
2908.64558	0.02475
2906.58564	0.02471
2904.52569	0.02471
2902.46574	0.02475
2900.40579	0.02472
2898.34585	0.02457
2896.28590	0.02439
2894.22595	0.02430
2892.16601	0.02430
2890.10606	0.02429
2888.04611	0.02426
2885.98616	0.02425
2883.92622	0.02420
2881.86627	0.02411
2879.80632	0.02403
2877.74637	0.02392
2875.68643	0.02379
2873.62648	0.02372
2871.56653	0.02367
2869.50658	0.02364
2867.44664	0.02361
2865.38669	0.02358
2863.32674	0.02357
2861.26680	0.02351
2859.20685	0.02339
2857.14690	0.02333
2855.08695	0.02335
2853.02701	0.02341
2850.96706	0.02344
2848.90711	0.02340
2846.84716	0.02328
2844.78722	0.02318
2842.72727	0.02311
2840.66732	0.02302
2838.60738	0.02292
2836.54743	0.02286
2834.48748	0.02283
2832.42753	0.02279
2830.36759	0.02274
2828.30764	0.02270
2826.24769	0.02262
2824.18774	0.02252
2822.12780	0.02248
2820.06785	0.02251
2818.00790	0.02253
2815.94796	0.02252
2813.88801	0.02251
2811.82806	0.02252
2809.76811	0.02251
2807.70817	0.02244
2805.64822	0.02238
2803.58827	0.02234
2801.52832	0.02230
2799.46838	0.02228
2797.40843	0.02227
2795.34848	0.02223
2793.28853	0.02217
2791.22859	0.02212
2789.16864	0.02214
2787.10869	0.02218
2785.04875	0.02216
2782.98880	0.02208
2780.92885	0.02202
2778.86890	0.02200
2776.80896	0.02197
2774.74901	0.02194
2772.68906	0.02196
2770.62911	0.02198
2768.56917	0.02196
2766.50922	0.02195
2764.44927	0.02195
2762.38933	0.02192
2760.32938	0.02190
2758.26943	0.02187
2756.20948	0.02183
2754.14954	0.02179
2752.08959	0.02178
2750.02964	0.02179
2747.96969	0.02178
2745.90975	0.02172
2743.84980	0.02167
2741.78985	0.02167
2739.72991	0.02173
2737.66996	0.02179
2735.61001	0.02178
2733.55006	0.02172
2731.49012	0.02167
2729.43017	0.02162
2727.37022	0.02156
2725.31027	0.02154
2723.25033	0.02153
2721.19038	0.02153
2719.13043	0.02157
2717.07048	0.02158
2715.01054	0.02154
2712.95059	0.02149
2710.89064	0.02144
2708.83070	0.02140
2706.77075	0.02136
2704.71080	0.02131
2702.65085	0.02129
2700.59091	0.02128
2698.53096	0.02127
2696.47101	0.02127
2694.41106	0.02127
2692.35112	0.02122
2690.29117	0.02117
2688.23122	0.02114
2686.17128	0.02113
2684.11133	0.02114
2682.05138	0.02115
2679.99143	0.02115
2677.93149	0.02112
2675.87154	0.02111
2673.81159	0.02115
2671.75164	0.02118
2669.69170	0.02123
2667.63175	0.02137
2665.57180	0.02161
2663.51186	0.02182
2661.45191	0.02194
2659.39196	0.02198
2657.33201	0.02199
2655.27207	0.02201
2653.21212	0.02207
2651.15217	0.02214
2649.09222	0.02214
2647.03228	0.02206
2644.97233	0.02199
2642.91238	0.02193
2640.85243	0.02183
2638.79249	0.02171
2636.73254	0.02159
2634.67259	0.02149
2632.61265	0.02144
2630.55270	0.02139
2628.49275	0.02131
2626.43280	0.02127
2624.37286	0.02123
2622.31291	0.02114
2620.25296	0.02101
2618.19301	0.02094
2616.13307	0.02095
2614.07312	0.02091
2612.01317	0.02078
2609.95323	0.02063
2607.89328	0.02051
2605.83333	0.02043
2603.77338	0.02036
2601.71344	0.02032
2599.65349	0.02027
2597.59354	0.02022
2595.53359	0.02018
2593.47365	0.02015
2591.41370	0.02008
2589.35375	0.01996
2587.29381	0.01985
2585.23386	0.01983
2583.17391	0.01988
2581.11396	0.01992
2579.05402	0.01986
2576.99407	0.01978
2574.93412	0.01974
2572.87417	0.01970
2570.81423	0.01961
2568.75428	0.01952
2566.69433	0.01948
2564.63438	0.01944
2562.57444	0.01936
2560.51449	0.01925
2558.45454	0.01914
2556.39460	0.01905
2554.33465	0.01898
2552.27470	0.01899
2550.21475	0.01905
2548.15481	0.01910
2546.09486	0.01908
2544.03491	0.01900
2541.97496	0.01893
2539.91502	0.01890
2537.85507	0.01888
2535.79512	0.01889
2533.73518	0.01891
2531.67523	0.01889
2529.61528	0.01884
2527.55533	0.01877
2525.49539	0.01875
2523.43544	0.01875
2521.37549	0.01869
2519.31554	0.01863
2517.25560	0.01865
2515.19565	0.01868
2513.13570	0.01868
2511.07576	0.01859
2509.01581	0.01846
2506.95586	0.01840
2504.89591	0.01839
2502.83597	0.01833
2500.77602	0.01831
2498.71607	0.01839
2496.65612	0.01848
2494.59618	0.01849
2492.53623	0.01846
2490.47628	0.01841
2488.41633	0.01835
2486.35639	0.01827
2484.29644	0.01819
2482.23649	0.01817
2480.17655	0.01819
2478.11660	0.01822
2476.05665	0.01826
2473.99670	0.01824
2471.93676	0.01812
2469.87681	0.01802
2467.81686	0.01809
2465.75691	0.01827
2463.69697	0.01838
2461.63702	0.01840
2459.57707	0.01839
2457.51713	0.01844
2455.45718	0.01848
2453.39723	0.01841
2451.33728	0.01833
2449.27734	0.01825
2447.21739	0.01810
2445.15744	0.01798
2443.09749	0.01786
2441.03755	0.01777
2438.97760	0.01775
2436.91765	0.01770
2434.85771	0.01767
2432.79776	0.01770
2430.73781	0.01769
2428.67786	0.01758
2426.61792	0.01740
2424.55797	0.01726
2422.49802	0.01729
2420.43807	0.01734
2418.37813	0.01727
2416.31818	0.01716
2414.25823	0.01717
2412.19828	0.01727
2410.13834	0.01725
2408.07839	0.01706
2406.01844	0.01688
2403.95850	0.01676
2401.89855	0.01672
2399.83860	0.01676
2397.77865	0.01679
2395.71871	0.01675
2393.65876	0.01669
2391.59881	0.01666
2389.53886	0.01666
2387.47892	0.01664
2385.41897	0.01660
2383.35902	0.01661
2381.29908	0.01672
2379.23913	0.01685
2377.17918	0.01696
2375.11923	0.01702
2373.05929	0.01701
2370.99934	0.01698
2368.93939	0.01704
2366.87944	0.01732
2364.81950	0.01790
2362.75955	0.01850
2360.69960	0.01884
2358.63966	0.01897
2356.57971	0.01892
2354.51976	0.01880
2352.45981	0.01869
2350.39987	0.01840
2348.33992	0.01806
2346.27997	0.01804
2344.22002	0.01839
2342.16008	0.01859
2340.10013	0.01848
2338.04018	0.01842
2335.98023	0.01842
2333.92029	0.01842
2331.86034	0.01861
2329.80039	0.01924
2327.74045	0.02053
2325.68050	0.02162
2323.62055	0.02143
2321.56060	0.02059
2319.50066	0.02001
2317.44071	0.01967
2315.38076	0.01946
2313.32081	0.01929
2311.26087	0.01914
2309.20092	0.01902
2307.14097	0.01891
2305.08103	0.01879
2303.02108	0.01872
2300.96113	0.01869
2298.90118	0.01871
2296.84124	0.01882
2294.78129	0.01902
2292.72134	0.01930
2290.66139	0.01954
2288.60145	0.01965
2286.54150	0.01956
2284.48155	0.01919
2282.42161	0.01869
2280.36166	0.01833
2278.30171	0.01812
2276.24176	0.01796
2274.18182	0.01785
2272.12187	0.01773
2270.06192	0.01756
2268.00197	0.01740
2265.94203	0.01724
2263.88208	0.01713
2261.82213	0.01718
2259.76218	0.01728
2257.70224	0.01712
2255.64229	0.01670
2253.58234	0.01638
2251.52240	0.01625
2249.46245	0.01630
2247.40250	0.01655
2245.34255	0.01681
2243.28261	0.01675
2241.22266	0.01651
2239.16271	0.01647
2237.10276	0.01651
2235.04282	0.01654
2232.98287	0.01657
2230.92292	0.01646
2228.86298	0.01622
2226.80303	0.01597
2224.74308	0.01592
2222.68313	0.01601
2220.62319	0.01586
2218.56324	0.01552
2216.50329	0.01535
2214.44334	0.01532
2212.38340	0.01531
2210.32345	0.01543
2208.26350	0.01562
2206.20356	0.01571
2204.14361	0.01574
2202.08366	0.01566
2200.02371	0.01541
2197.96377	0.01529
2195.90382	0.01536
2193.84387	0.01541
2191.78392	0.01552
2189.72398	0.01579
2187.66403	0.01588
2185.60408	0.01540
2183.54413	0.01445
2181.48419	0.01397
2179.42424	0.01403
2177.36429	0.01375
2175.30435	0.01358
2173.24440	0.01431
2171.18445	0.01532
2169.12450	0.01599
2167.06456	0.01644
2165.00461	0.01680
2162.94466	0.01583
2160.88471	0.01173
2158.82477	0.00731
2156.76482	0.00664
2154.70487	0.00784
2152.64493	0.00897
2150.58498	0.00995
2148.52503	0.01024
2146.46508	0.01010
2144.40514	0.01020
2142.34519	0.01052
2140.28524	0.01080
2138.22529	0.01053
2136.16535	0.00968
2134.10540	0.00917
2132.04545	0.00958
2129.98551	0.01043
2127.92556	0.01128
2125.86561	0.01203
2123.80566	0.01262
2121.74572	0.01311
2119.68577	0.01367
2117.62582	0.01434
2115.56587	0.01477
2113.50593	0.01479
2111.44598	0.01471
2109.38603	0.01466
2107.32608	0.01454
2105.26614	0.01446
2103.20619	0.01457
2101.14624	0.01464
2099.08630	0.01438
2097.02635	0.01377
2094.96640	0.01331
2092.90645	0.01348
2090.84651	0.01402
2088.78656	0.01443
2086.72661	0.01463
2084.66666	0.01480
2082.60672	0.01500
2080.54677	0.01510
2078.48682	0.01503
2076.42688	0.01492
2074.36693	0.01491
2072.30698	0.01491
2070.24703	0.01472
2068.18709	0.01437
2066.12714	0.01410
2064.06719	0.01403
2062.00724	0.01412
2059.94730	0.01432
2057.88735	0.01453
2055.82740	0.01481
2053.76746	0.01568
2051.70751	0.01647
2049.64756	0.01580
2047.58761	0.01467
2045.52767	0.01431
2043.46772	0.01429
2041.40777	0.01429
2039.34782	0.01440
2037.28788	0.01433
2035.22793	0.01377
2033.16798	0.01323
2031.10803	0.01293
2029.04809	0.01252
2026.98814	0.01232
2024.92819	0.01262
2022.86825	0.01296
2020.80830	0.01298
2018.74835	0.01264
2016.68840	0.01225
2014.62846	0.01210
2012.56851	0.01219
2010.50856	0.01234
2008.44861	0.01197
2006.38867	0.01142
2004.32872	0.01165
2002.26877	0.01244
2000.20883	0.01311
1998.14888	0.01341
1996.08893	0.01352
1994.02898	0.01370
1991.96904	0.01382
1989.90909	0.01390
1987.84914	0.01439
1985.78919	0.01539
1983.72925	0.01651
1981.66930	0.01678
1979.60935	0.01521
1977.54941	0.01288
1975.48946	0.01172
1973.42951	0.01157
1971.36956	0.01152
1969.30962	0.01144
1967.24967	0.01146
1965.18972	0.01147
1963.12977	0.01131
1961.06983	0.01097
1959.00988	0.01088
1956.94993	0.01127
1954.88998	0.01175
1952.83004	0.01206
1950.77009	0.01210
1948.71014	0.01185
1946.65020	0.01169
1944.59025	0.01192
1942.53030	0.01234
1940.47035	0.01258
1938.41041	0.01268
1936.35046	0.01274
1934.29051	0.01267
1932.23056	0.01257
1930.17062	0.01254
1928.11067	0.01253
1926.05072	0.01257
1923.99078	0.01273
1921.93083	0.01295
1919.87088	0.01316
1917.81093	0.01339
1915.75099	0.01356
1913.69104	0.01363
1911.63109	0.01371
1909.57114	0.01379
1907.51120	0.01387
1905.45125	0.01401
1903.39130	0.01416
1901.33136	0.01422
1899.27141	0.01422
1897.21146	0.01422
1895.15151	0.01421
1893.09157	0.01424
1891.03162	0.01436
1888.97167	0.01454
1886.91172	0.01467
1884.85178	0.01479
1882.79183	0.01491
1880.73188	0.01498
1878.67193	0.01507
1876.61199	0.01513
1874.55204	0.01513
1872.49209	0.01516
1870.43215	0.01528
1868.37220	0.01537
1866.31225	0.01523
1864.25230	0.01504
1862.19236	0.01494
1860.13241	0.01486
1858.07246	0.01479
1856.01251	0.01471
1853.95257	0.01454
1851.89262	0.01434
1849.83267	0.01419
1847.77273	0.01412
1845.71278	0.01412
1843.65283	0.01412
1841.59288	0.01396
1839.53294	0.01383
1837.47299	0.01391
1835.41304	0.01401
1833.35309	0.01400
1831.29315	0.01407
1829.23320	0.01418
1827.17325	0.01411
1825.11331	0.01410
1823.05336	0.01415
1820.99341	0.01395
1818.93346	0.01360
1816.87352	0.01349
1814.81357	0.01372
1812.75362	0.01402
1810.69367	0.01429
1808.63373	0.01447
1806.57378	0.01456
1804.51383	0.01458
1802.45388	0.01463
1800.39394	0.01474
1798.33399	0.01479
1796.27404	0.01471
1794.21410	0.01468
1792.15415	0.01484
1790.09420	0.01499
1788.03425	0.01497
1785.97431	0.01496
1783.91436	0.01494
1781.85441	0.01485
1779.79446	0.01474
1777.73452	0.01465
1775.67457	0.01456
1773.61462	0.01463
1771.55468	0.01482
1769.49473	0.01481
1767.43478	0.01465
1765.37483	0.01451
1763.31489	0.01448
1761.25494	0.01460
1759.19499	0.01471
1757.13504	0.01477
1755.07510	0.01474
1753.01515	0.01468
1750.95520	0.01481
1748.89526	0.01499
1746.83531	0.01494
1744.77536	0.01484
1742.71541	0.01483
1740.65547	0.01487
1738.59552	0.01495
1736.53557	0.01502
1734.47562	0.01520
1732.41568	0.01536
1730.35573	0.01529
1728.29578	0.01520
1726.23583	0.01515
1724.17589	0.01521
1722.11594	0.01532
1720.05599	0.01544
1717.99605	0.01571
1715.93610	0.01600
1713.87615	0.01604
1711.81620	0.01601
1709.75626	0.01598
1707.69631	0.01604
1705.63636	0.01623
1703.57641	0.01633
1701.51647	0.01648
1699.45652	0.01686
1697.39657	0.01704
1695.33663	0.01712
1693.27668	0.01715
1691.21673	0.01716
1689.15678	0.01726
1687.09684	0.01728
1685.03689	0.01741
1682.97694	0.01776
1680.91699	0.01780
1678.85705	0.01773
1676.79710	0.01778
1674.73715	0.01795
1672.67721	0.01805
1670.61726	0.01812
1668.55731	0.01819
1666.49736	0.01811
1664.43742	0.01811
1662.37747	0.01825
1660.31752	0.01833
1658.25757	0.01832
1656.19763	0.01834
1654.13768	0.01865
1652.07773	0.01914
1650.01778	0.01907
1647.95784	0.01905
1645.89789	0.01923
1643.83794	0.01915
1641.77800	0.01903
1639.71805	0.01903
1637.65810	0.01916
1635.59815	0.01955
1633.53821	0.01968
1631.47826	0.01955
1629.41831	0.01960
1627.35836	0.01979
1625.29842	0.01989
1623.23847	0.01997
1621.17852	0.02002
1619.11858	0.02003
1617.05863	0.02027
1614.99868	0.02049
1612.93873	0.02037
1610.87879	0.02022
1608.81884	0.02018
1606.75889	0.02016
1604.69894	0.02013
1602.63900	0.02007
1600.57905	0.01999
1598.51910	0.01995
1596.45916	0.01992
1594.39921	0.01982
1592.33926	0.01967
1590.27931	0.01952
1588.21937	0.01943
1586.15942	0.01933
1584.09947	0.01923
1582.03952	0.01916
1579.97958	0.01909
1577.91963	0.01908
1575.85968	0.01918
1573.79973	0.01909
1571.73979	0.01888
1569.67984	0.01882
1567.61989	0.01878
1565.55995	0.01866
1563.50000	0.01849
1561.44005	0.01831
1559.38010	0.01849
1557.32016	0.01878
1555.26021	0.01854
1553.20026	0.01832
1551.14031	0.01822
1549.08037	0.01814
1547.02042	0.01806
1544.96047	0.01806
1542.90053	0.01813
1540.84058	0.01829
1538.78063	0.01842
1536.72068	0.01823
1534.66074	0.01814
1532.60079	0.01816
1530.54084	0.01806
1528.48089	0.01798
1526.42095	0.01804
1524.36100	0.01807
1522.30105	0.01810
1520.24111	0.01811
1518.18116	0.01796
1516.12121	0.01780
1514.06126	0.01763
1512.00132	0.01748
1509.94137	0.01744
1507.88142	0.01766
1505.82147	0.01783
1503.76153	0.01752
1501.70158	0.01722
1499.64163	0.01711
1497.58168	0.01718
1495.52174	0.01720
1493.46179	0.01709
1491.40184	0.01706
1489.34190	0.01720
1487.28195	0.01725
1485.22200	0.01713
1483.16205	0.01705
1481.10211	0.01705
1479.04216	0.01707
1476.98221	0.01713
1474.92226	0.01731
1472.86232	0.01754
1470.80237	0.01756
1468.74242	0.01742
1466.68248	0.01738
1464.62253	0.01749
1462.56258	0.01748
1460.50263	0.01743
1458.44269	0.01764
1456.38274	0.01802
1454.32279	0.01795
1452.26284	0.01778
1450.20290	0.01772
1448.14295	0.01772
1446.08300	0.01769
1444.02306	0.01762
1441.96311	0.01759
1439.90316	0.01760
1437.84321	0.01773
1435.78327	0.01795
1433.72332	0.01793
1431.66337	0.01785
1429.60342	0.01787
1427.54348	0.01786
1425.48353	0.01787
1423.42358	0.01796
1421.36363	0.01802
1419.30369	0.01813
1417.24374	0.01825
1415.18379	0.01823
1413.12385	0.01823
1411.06390	0.01826
1409.00395	0.01821
1406.94400	0.01812
1404.88406	0.01809
1402.82411	0.01803
1400.76416	0.01801
1398.70421	0.01806
1396.64427	0.01810
1394.58432	0.01815
1392.52437	0.01808
1390.46443	0.01790
1388.40448	0.01784
1386.34453	0.01791
1384.28458	0.01793
1382.22464	0.01790
1380.16469	0.01792
1378.10474	0.01794
1376.04479	0.01795
1373.98485	0.01796
1371.92490	0.01786
1369.86495	0.01772
1367.80501	0.01766
1365.74506	0.01764
1363.68511	0.01762
1361.62516	0.01757
1359.56522	0.01744
1357.50527	0.01729
1355.44532	0.01720
1353.38537	0.01717
1351.32543	0.01720
1349.26548	0.01718
1347.20553	0.01711
1345.14558	0.01706
1343.08564	0.01708
1341.02569	0.01715
1338.96574	0.01723
1336.90580	0.01722
1334.84585	0.01719
1332.78590	0.01719
1330.72595	0.01719
1328.66601	0.01717
1326.60606	0.01717
1324.54611	0.01722
1322.48616	0.01731
1320.42622	0.01741
1318.36627	0.01748
1316.30632	0.01751
1314.24638	0.01757
1312.18643	0.01766
1310.12648	0.01768
1308.06653	0.01768
1306.00659	0.01774
1303.94664	0.01788
1301.88669	0.01806
1299.82674	0.01822
1297.76680	0.01835
1295.70685	0.01851
1293.64690	0.01868
1291.58696	0.01887
1289.52701	0.01909
1287.46706	0.01934
1285.40711	0.01965
1283.34717	0.01997
1281.28722	0.02023
1279.22727	0.02044
1277.16732	0.02063
1275.10738	0.02082
1273.04743	0.02102
1270.98748	0.02126
1268.92753	0.02150
1266.86759	0.02174
1264.80764	0.02200
1262.74769	0.02226
1260.68775	0.02251
1258.62780	0.02279
1256.56785	0.02314
1254.50790	0.02352
1252.44796	0.02394
1250.38801	0.02444
1248.32806	0.02495
1246.26811	0.02542
1244.20817	0.02592
1242.14822	0.02647
1240.08827	0.02702
1238.02833	0.02759
1235.96838	0.02824
1233.90843	0.02900
1231.84848	0.02986
1229.78854	0.03081
1227.72859	0.03189
1225.66864	0.03319
1223.60869	0.03475
1221.54875	0.03656
1219.48880	0.03862
1217.42885	0.04089
1215.36891	0.04323
1213.30896	0.04554
1211.24901	0.04784
1209.18906	0.05011
1207.12912	0.05227
1205.06917	0.05432
1203.00922	0.05630
1200.94927	0.05817
1198.88933	0.05991
1196.82938	0.06156
1194.76943	0.06311
1192.70949	0.06457
1190.64954	0.06597
1188.58959	0.06735
1186.52964	0.06876
1184.46970	0.07024
1182.40975	0.07182
1180.34980	0.07357
1178.28985	0.07556
1176.22991	0.07787
1174.16996	0.08049
1172.11001	0.08349
1170.05006	0.08686
1167.99012	0.09049
1165.93017	0.09418
1163.87022	0.09712
1161.81028	0.09809
1159.75033	0.09678
1157.69038	0.09452
1155.63043	0.09298
1153.57049	0.09282
1151.51054	0.09378
1149.45059	0.09540
1147.39064	0.09734
1145.33070	0.09948
1143.27075	0.10181
1141.21080	0.10433
1139.15086	0.10701
1137.09091	0.10978
1135.03096	0.11273
1132.97101	0.11587
1130.91107	0.11913
1128.85112	0.12257
1126.79117	0.12617
1124.73122	0.12982
1122.67128	0.13364
1120.61133	0.13771
1118.55138	0.14187
1116.49144	0.14602
1114.43149	0.15027
1112.37154	0.15467
1110.31159	0.15923
1108.25165	0.16392
1106.19170	0.16880
1104.13175	0.17387
1102.07180	0.17907
1100.01186	0.18440
1097.95191	0.18982
1095.89196	0.19530
1093.83201	0.20080
1091.77207	0.20620
1089.71212	0.21149
1087.65217	0.21654
1085.59223	0.22097
1083.53228	0.22466
1081.47233	0.22762
1079.41238	0.22981
1077.35244	0.23118
1075.29249	0.23160
1073.23254	0.23106
1071.17259	0.22999
1069.11265	0.22905
1067.05270	0.22842
1064.99275	0.22770
1062.93281	0.22658
1060.87286	0.22504
1058.81291	0.22310
1056.75296	0.22074
1054.69302	0.21799
1052.63307	0.21514
1050.57312	0.21246
1048.51317	0.20998
1046.45323	0.20760
1044.39328	0.20540
1042.33333	0.20347
1040.27339	0.20164
1038.21344	0.19977
1036.15349	0.19788
1034.09354	0.19594
1032.03360	0.19387
1029.97365	0.19174
1027.91370	0.18971
1025.85375	0.18769
1023.79381	0.18563
1021.73386	0.18364
1019.67391	0.18170
1017.61396	0.17984
1015.55402	0.17809
1013.49407	0.17638
1011.43412	0.17466
1009.37418	0.17293
1007.31423	0.17113
1005.25428	0.16926
1003.19433	0.16736
1001.13439	0.16546
999.07444	0.16360
997.01449	0.16175
994.95454	0.15986
992.89460	0.15800
990.83465	0.15619
988.77470	0.15429
986.71476	0.15232
984.65481	0.15045
982.59486	0.14858
980.53491	0.14662
978.47497	0.14463
976.41502	0.14270
974.35507	0.14081
972.29512	0.13885
970.23518	0.13683
968.17523	0.13486
966.11528	0.13296
964.05534	0.13104
961.99539	0.12906
959.93544	0.12708
957.87549	0.12519
955.81555	0.12335
953.75560	0.12144
951.69565	0.11949
949.63570	0.11762
947.57576	0.11588
945.51581	0.11416
943.45586	0.11241
941.39591	0.11071
939.33597	0.10907
937.27602	0.10738
935.21607	0.10562
933.15613	0.10390
931.09618	0.10223
929.03623	0.10051
926.97628	0.09878
924.91634	0.09711
922.85639	0.09553
920.79644	0.09398
918.73649	0.09246
916.67655	0.09103
914.61660	0.08961
912.55665	0.08811
910.49671	0.08650
908.43676	0.08479
906.37681	0.08303
904.31686	0.08121
902.25692	0.07945
900.19697	0.07781
898.13702	0.07622
896.07707	0.07461
894.01713	0.07290
891.95718	0.07119
889.89723	0.06959
887.83729	0.06813
885.77734	0.06674
883.71739	0.06534
881.65744	0.06391
879.59750	0.06240
877.53755	0.06085
875.47760	0.05932
873.41765	0.05789
871.35771	0.05652
869.29776	0.05507
867.23781	0.05359
865.17786	0.05218
863.11792	0.05089
861.05797	0.04968
858.99802	0.04849
856.93808	0.04730
854.87813	0.04614
852.81818	0.04506
850.75823	0.04415
848.69829	0.04328
846.63834	0.04238
844.57839	0.04155
842.51844	0.04094
840.45850	0.04061
838.39855	0.04042
836.33860	0.04023
834.27866	0.04011
832.21871	0.04016
830.15876	0.04039
828.09881	0.04081
826.03887	0.04148
823.97892	0.04244
821.91897	0.04369
819.85902	0.04531
817.79908	0.04753
815.73913	0.05063
813.67918	0.05492
811.61924	0.06097
809.55929	0.06948
807.49934	0.08083
805.43939	0.09464
803.37945	0.10961
801.31950	0.12389
799.25955	0.13538
797.19960	0.14200
795.13966	0.14315
793.07971	0.14071
791.01976	0.13751
788.95981	0.13587
786.89987	0.13735
784.83992	0.14249
782.77997	0.15033
780.72003	0.15841
778.66008	0.16349
776.60013	0.16333
774.54018	0.15838
772.48024	0.15092
770.42029	0.14294
768.36034	0.13542
766.30039	0.12855
764.24045	0.12220
762.18050	0.11634
760.12055	0.11096
758.06061	0.10593
756.00066	0.10130
753.94071	0.09724
751.88076	0.09361
749.82082	0.09021
747.76087	0.08700
745.70092	0.08402
743.64097	0.08122
741.58103	0.07859
739.52108	0.07618
737.46113	0.07396
735.40119	0.07185
733.34124	0.06987
731.28129	0.06803
729.22134	0.06632
727.16140	0.06482
725.10145	0.06349
723.04150	0.06229
720.98155	0.06128
718.92161	0.06044
716.86166	0.05974
714.80171	0.05929
712.74176	0.05914
710.68182	0.05928
708.62187	0.05989
706.56192	0.06127
704.50198	0.06378
702.44203	0.06802
700.38208	0.07483
698.32213	0.08406
696.26219	0.09246
694.20224	0.09533
692.14229	0.09186
690.08234	0.08518
688.02240	0.07826
685.96245	0.07229
683.90250	0.06745
681.84256	0.06358
679.78261	0.06041
677.72266	0.05780
675.66271	0.05561
673.60277	0.05367
671.54282	0.05203
669.48287	0.05069
667.42292	0.04927
665.36298	0.04769
663.30303	0.04622
661.24308	0.04498
659.18314	0.04403
657.12319	0.04329
655.06324	0.04262
653.00329	0.04189
650.94335	0.04114
648.88340	0.04044
646.82345	0.03978
644.76350	0.03914
642.70356	0.03854
640.64361	0.03799
638.58366	0.03747
636.52371	0.03691
634.46377	0.03631
632.40382	0.03572
630.34387	0.03520
628.28393	0.03485
626.22398	0.03459
624.16403	0.03424
622.10408	0.03387
620.04414	0.03352
617.98419	0.03309
615.92424	0.03267
613.86429	0.03241
611.80435	0.03230
609.74440	0.03217
607.68445	0.03199
605.62451	0.03185
603.56456	0.03170
601.50461	0.03142
599.44466	0.03107
597.38472	0.03080
595.32477	0.03070
593.26482	0.03072
591.20487	0.03065
589.14493	0.03047
587.08498	0.03034
585.02503	0.03030
582.96509	0.03036
580.90514	0.03053
578.84519	0.03059
576.78524	0.03045
574.72530	0.03032
572.66535	0.03038
570.60540	0.03052
568.54545	0.03062
566.48551	0.03085
564.42556	0.03134
562.36561	0.03187
560.30566	0.03229
558.24572	0.03284
556.18577	0.03378
554.12582	0.03513
552.06588	0.03705
550.00593	0.03946
547.94598	0.04216
545.88603	0.04559
543.82609	0.05005
541.76614	0.05527
539.70619	0.06097
537.64624	0.06709
535.58630	0.07364
533.52635	0.08032
531.46640	0.08659
529.40646	0.09221
527.34651	0.09752
525.28656	0.10272
523.22661	0.10692
521.16667	0.10987
519.10672	0.11197
517.04677	0.11301
514.98682	0.11282
512.92688	0.11143
510.86693	0.10898
508.80698	0.10629
506.74704	0.10475
504.68709	0.10554
502.62714	0.10903
500.56719	0.11430
498.50725	0.12011
496.44730	0.12644
494.38735	0.13299
492.32740	0.13956
490.26746	0.14597
488.20751	0.15221
486.14756	0.15877
484.08761	0.16564
482.02767	0.17273
479.96772	0.18006
477.90777	0.18760
475.84783	0.19528
473.78788	0.20356
471.72793	0.21297
469.66798	0.22189
467.60804	0.23000
465.54809	0.23796
463.48814	0.24498
461.42819	0.25048
459.36825	0.25444
457.30830	0.25740
455.24835	0.25815
453.18841	0.25602
451.12846	0.25190
449.06851	0.24677
447.00856	0.24119
444.94862	0.23573
442.88867	0.23040
440.82872	0.22484
438.76877	0.21986
436.70883	0.21523
434.64888	0.21017
432.58893	0.20529
430.52899	0.20064
428.46904	0.19560
426.40909	0.19026
424.34914	0.18471
422.28920	0.17836
420.22925	0.17065
418.16930	0.16233
416.10935	0.15531
414.04941	0.14743
411.98946	0.13737
409.92951	0.12657
407.86956	0.11752
405.80962	0.11444
403.74967	0.12144
401.68972	0.13837
399.62978	0.16387
