3996.29776	0.02736
3994.23781	0.02741
3992.17786	0.02744
3990.11791	0.02743
3988.05797	0.02746
3985.99802	0.02746
3983.93807	0.02740
3981.87813	0.02742
3979.81818	0.02748
3977.75823	0.02749
3975.69828	0.02754
3973.63834	0.02757
3971.57839	0.02752
3969.51844	0.02747
3967.45849	0.02741
3965.39855	0.02727
3963.33860	0.02720
3961.27865	0.02731
3959.21870	0.02741
3957.15876	0.02742
3955.09881	0.02733
3953.03886	0.02718
3950.97892	0.02722
3948.91897	0.02744
3946.85902	0.02747
3944.79907	0.02738
3942.73913	0.02748
3940.67918	0.02751
3938.61923	0.02734
3936.55928	0.02717
3934.49934	0.02712
3932.43939	0.02728
3930.37944	0.02744
3928.31950	0.02733
3926.25955	0.02716
3924.19960	0.02715
3922.13965	0.02707
3920.07971	0.02693
3918.01976	0.02702
3915.95981	0.02715
3913.89986	0.02708
3911.83992	0.02696
3909.77997	0.02686
3907.72002	0.02666
3905.66008	0.02659
3903.60013	0.02685
3901.54018	0.02717
3899.48023	0.02739
3897.42029	0.02737
3895.36034	0.02702
3893.30039	0.02682
3891.24044	0.02708
3889.18050	0.02704
3887.12055	0.02676
3885.06060	0.02699
3883.00065	0.02718
3880.94071	0.02721
3878.88076	0.02726
3876.82081	0.02696
3874.76087	0.02681
3872.70092	0.02694
3870.64097	0.02710
3868.58102	0.02731
3866.52108	0.02722
3864.46113	0.02722
3862.40118	0.02729
3860.34123	0.02699
3858.28129	0.02651
3856.22134	0.02616
3854.16139	0.02676
3852.10145	0.02797
3850.04150	0.02777
3847.98155	0.02704
3845.92160	0.02657
3843.86166	0.02647
3841.80171	0.02655
3839.74176	0.02671
3837.68181	0.02715
3835.62187	0.02736
3833.56192	0.02713
3831.50197	0.02692
3829.44203	0.02672
3827.38208	0.02663
3825.32213	0.02658
3823.26218	0.02637
3821.20224	0.02667
3819.14229	0.02701
3817.08234	0.02700
3815.02239	0.02723
3812.96245	0.02700
3810.90250	0.02640
3808.84255	0.02616
3806.78260	0.02653
3804.72266	0.02669
3802.66271	0.02665
3800.60276	0.02700
3798.54282	0.02701
3796.48287	0.02688
3794.42292	0.02682
3792.36297	0.02656
3790.30303	0.02637
3788.24308	0.02633
3786.18313	0.02632
3784.12318	0.02630
3782.06324	0.02620
3780.00329	0.02625
3777.94334	0.02644
3775.88340	0.02641
3773.82345	0.02619
3771.76350	0.02604
3769.70355	0.02631
3767.64361	0.02662
3765.58366	0.02671
3763.52371	0.02655
3761.46376	0.02616
3759.40382	0.02610
3757.34387	0.02618
3755.28392	0.02592
3753.22398	0.02582
3751.16403	0.02654
3749.10408	0.02703
3747.04413	0.02656
3744.98419	0.02660
3742.92424	0.02706
3740.86429	0.02659
3738.80434	0.02584
3736.74440	0.02577
3734.68445	0.02666
3732.62450	0.02719
3730.56455	0.02673
3728.50461	0.02612
3726.44466	0.02598
3724.38471	0.02618
3722.32477	0.02628
3720.26482	0.02624
3718.20487	0.02604
3716.14492	0.02568
3714.08498	0.02540
3712.02503	0.02578
3709.96508	0.02655
3707.90513	0.02666
3705.84519	0.02628
3703.78524	0.02610
3701.72529	0.02654
3699.66535	0.02705
3697.60540	0.02715
3695.54545	0.02702
3693.48550	0.02671
3691.42556	0.02658
3689.36561	0.02723
3687.30566	0.02778
3685.24571	0.02747
3683.18577	0.02698
3681.12582	0.02662
3679.06587	0.02625
3677.00593	0.02624
3674.94598	0.02714
3672.88603	0.02736
3670.82608	0.02716
3668.76614	0.02755
3666.70619	0.02760
3664.64624	0.02728
3662.58629	0.02703
3660.52635	0.02685
3658.46640	0.02679
3656.40645	0.02700
3654.34651	0.02701
3652.28656	0.02665
3650.22661	0.02687
3648.16666	0.02782
3646.10672	0.02798
3644.04677	0.02758
3641.98682	0.02731
3639.92687	0.02727
3637.86693	0.02721
3635.80698	0.02711
3633.74703	0.02704
3631.68708	0.02685
3629.62714	0.02713
3627.56719	0.02797
3625.50724	0.02795
3623.44730	0.02749
3621.38735	0.02734
3619.32740	0.02762
3617.26745	0.02776
3615.20751	0.02761
3613.14756	0.02769
3611.08761	0.02769
3609.02766	0.02755
3606.96772	0.02759
3604.90777	0.02743
3602.84782	0.02708
3600.78788	0.02698
3598.72793	0.02705
3596.66798	0.02711
3594.60803	0.02724
3592.54809	0.02719
3590.48814	0.02685
3588.42819	0.02682
3586.36824	0.02721
3584.30830	0.02717
3582.24835	0.02691
3580.18840	0.02685
3578.12846	0.02692
3576.06851	0.02693
3574.00856	0.02691
3571.94861	0.02682
3569.88867	0.02667
3567.82872	0.02694
3565.76877	0.02745
3563.70882	0.02741
3561.64888	0.02718
3559.58893	0.02712
3557.52898	0.02711
3555.46903	0.02706
3553.40909	0.02706
3551.34914	0.02713
3549.28919	0.02718
3547.22925	0.02733
3545.16930	0.02754
3543.10935	0.02759
3541.04940	0.02753
3538.98946	0.02751
3536.92951	0.02754
3534.86956	0.02754
3532.80961	0.02752
3530.74967	0.02755
3528.68972	0.02761
3526.62977	0.02767
3524.56983	0.02776
3522.50988	0.02782
3520.44993	0.02774
3518.38998	0.02768
3516.33004	0.02767
3514.27009	0.02760
3512.21014	0.02754
3510.15019	0.02768
3508.09025	0.02792
3506.03030	0.02796
3503.97035	0.02791
3501.91041	0.02792
3499.85046	0.02791
3497.79051	0.02787
3495.73056	0.02785
3493.67062	0.02779
3491.61067	0.02773
3489.55072	0.02775
3487.49077	0.02779
3485.43083	0.02782
3483.37088	0.02795
3481.31093	0.02812
3479.25098	0.02814
3477.19104	0.02809
3475.13109	0.02809
3473.07114	0.02813
3471.01120	0.02813
3468.95125	0.02811
3466.89130	0.02813
3464.83135	0.02818
3462.77141	0.02828
3460.71146	0.02839
3458.65151	0.02842
3456.59156	0.02839
3454.53162	0.02836
3452.47167	0.02839
3450.41172	0.02841
3448.35178	0.02845
3446.29183	0.02852
3444.23188	0.02848
3442.17193	0.02845
3440.11199	0.02850
3438.05204	0.02849
3435.99209	0.02843
3433.93214	0.02840
3431.87220	0.02839
3429.81225	0.02845
3427.75230	0.02857
3425.69236	0.02864
3423.63241	0.02864
3421.57246	0.02861
3419.51251	0.02858
3417.45257	0.02856
3415.39262	0.02857
3413.33267	0.02860
3411.27272	0.02863
3409.21278	0.02864
3407.15283	0.02864
3405.09288	0.02867
3403.03293	0.02881
3400.97299	0.02894
3398.91304	0.02889
3396.85309	0.02877
3394.79315	0.02875
3392.73320	0.02875
3390.67325	0.02874
3388.61330	0.02878
3386.55336	0.02883
3384.49341	0.02876
3382.43346	0.02868
3380.37351	0.02873
3378.31357	0.02879
3376.25362	0.02878
3374.19367	0.02881
3372.13373	0.02889
3370.07378	0.02894
3368.01383	0.02894
3365.95388	0.02889
3363.89394	0.02883
3361.83399	0.02882
3359.77404	0.02883
3357.71409	0.02884
3355.65415	0.02887
3353.59420	0.02896
3351.53425	0.02900
3349.47431	0.02895
3347.41436	0.02895
3345.35441	0.02901
3343.29446	0.02909
3341.23452	0.02913
3339.17457	0.02910
3337.11462	0.02906
3335.05467	0.02902
3332.99473	0.02901
3330.93478	0.02900
3328.87483	0.02895
3326.81488	0.02891
3324.75494	0.02898
3322.69499	0.02908
3320.63504	0.02908
3318.57510	0.02905
3316.51515	0.02905
3314.45520	0.02902
3312.39525	0.02898
3310.33531	0.02900
3308.27536	0.02907
3306.21541	0.02911
3304.15546	0.02909
3302.09552	0.02906
3300.03557	0.02900
3297.97562	0.02897
3295.91568	0.02898
3293.85573	0.02904
3291.79578	0.02911
3289.73583	0.02918
3287.67589	0.02922
3285.61594	0.02922
3283.55599	0.02913
3281.49604	0.02900
3279.43610	0.02895
3277.37615	0.02898
3275.31620	0.02904
3273.25626	0.02911
3271.19631	0.02915
3269.13636	0.02914
3267.07641	0.02909
3265.01647	0.02904
3262.95652	0.02903
3260.89657	0.02896
3258.83662	0.02892
3256.77668	0.02899
3254.71673	0.02904
3252.65678	0.02898
3250.59683	0.02890
3248.53689	0.02887
3246.47694	0.02893
3244.41699	0.02898
3242.35705	0.02895
3240.29710	0.02889
3238.23715	0.02887
3236.17720	0.02885
3234.11726	0.02883
3232.05731	0.02885
3229.99736	0.02886
3227.93741	0.02882
3225.87747	0.02875
3223.81752	0.02874
3221.75757	0.02876
3219.69763	0.02874
3217.63768	0.02868
3215.57773	0.02866
3213.51778	0.02865
3211.45784	0.02861
3209.39789	0.02856
3207.33794	0.02859
3205.27799	0.02863
3203.21805	0.02858
3201.15810	0.02849
3199.09815	0.02847
3197.03821	0.02850
3194.97826	0.02851
3192.91831	0.02847
3190.85836	0.02838
3188.79842	0.02830
3186.73847	0.02828
3184.67852	0.02832
3182.61857	0.02833
3180.55863	0.02826
3178.49868	0.02817
3176.43873	0.02815
3174.37878	0.02815
3172.31884	0.02808
3170.25889	0.02799
3168.19894	0.02798
3166.13900	0.02803
3164.07905	0.02806
3162.01910	0.02810
3159.95915	0.02810
3157.89921	0.02802
3155.83926	0.02792
3153.77931	0.02789
3151.71936	0.02786
3149.65942	0.02779
3147.59947	0.02775
3145.53952	0.02779
3143.47958	0.02783
3141.41963	0.02779
3139.35968	0.02769
3137.29973	0.02764
3135.23979	0.02764
3133.17984	0.02763
3131.11989	0.02763
3129.05994	0.02768
3127.00000	0.02770
3124.94005	0.02765
3122.88010	0.02759
3120.82016	0.02754
3118.76021	0.02744
3116.70026	0.02740
3114.64031	0.02745
3112.58037	0.02747
3110.52042	0.02749
3108.46047	0.02750
3106.40052	0.02745
3104.34058	0.02738
3102.28063	0.02738
3100.22068	0.02740
3098.16073	0.02740
3096.10079	0.02737
3094.04084	0.02737
3091.98089	0.02744
3089.92095	0.02749
3087.86100	0.02743
3085.80105	0.02735
3083.74110	0.02732
3081.68116	0.02733
3079.62121	0.02735
3077.56126	0.02736
3075.50131	0.02741
3073.44137	0.02747
3071.38142	0.02746
3069.32147	0.02737
3067.26153	0.02734
3065.20158	0.02733
3063.14163	0.02726
3061.08168	0.02722
3059.02174	0.02725
3056.96179	0.02729
3054.90184	0.02729
3052.84189	0.02724
3050.78195	0.02721
3048.72200	0.02720
3046.66205	0.02716
3044.60211	0.02708
3042.54216	0.02703
3040.48221	0.02701
3038.42226	0.02704
3036.36232	0.02712
3034.30237	0.02717
3032.24242	0.02715
3030.18247	0.02716
3028.12253	0.02718
3026.06258	0.02716
3024.00263	0.02720
3021.94268	0.02728
3019.88274	0.02731
3017.82279	0.02730
3015.76284	0.02728
3013.70290	0.02725
3011.64295	0.02722
3009.58300	0.02723
3007.52305	0.02726
3005.46311	0.02735
3003.40316	0.02742
3001.34321	0.02743
2999.28326	0.02750
2997.22332	0.02762
2995.16337	0.02769
2993.10342	0.02773
2991.04348	0.02771
2988.98353	0.02764
2986.92358	0.02763
2984.86363	0.02770
2982.80369	0.02776
2980.74374	0.02777
2978.68379	0.02777
2976.62384	0.02782
2974.56390	0.02788
2972.50395	0.02792
2970.44400	0.02796
2968.38406	0.02794
2966.32411	0.02783
2964.26416	0.02776
2962.20421	0.02773
2960.14427	0.02768
2958.08432	0.02763
2956.02437	0.02760
2953.96442	0.02760
2951.90448	0.02760
2949.84453	0.02760
2947.78458	0.02772
2945.72463	0.02788
2943.66469	0.02794
2941.60474	0.02789
2939.54479	0.02787
2937.48485	0.02798
2935.42490	0.02808
2933.36495	0.02816
2931.30500	0.02828
2929.24506	0.02841
2927.18511	0.02849
2925.12516	0.02857
2923.06521	0.02870
2921.00527	0.02884
2918.94532	0.02887
2916.88537	0.02871
2914.82543	0.02852
2912.76548	0.02838
2910.70553	0.02826
2908.64558	0.02818
2906.58564	0.02811
2904.52569	0.02805
2902.46574	0.02800
2900.40579	0.02797
2898.34585	0.02789
2896.28590	0.02777
2894.22595	0.02764
2892.16601	0.02757
2890.10606	0.02755
2888.04611	0.02752
2885.98616	0.02748
2883.92622	0.02742
2881.86627	0.02735
2879.80632	0.02728
2877.74637	0.02721
2875.68643	0.02714
2873.62648	0.02706
2871.56653	0.02700
2869.50658	0.02699
2867.44664	0.02700
2865.38669	0.02701
2863.32674	0.02702
2861.26680	0.02697
2859.20685	0.02691
2857.14690	0.02695
2855.08695	0.02707
2853.02701	0.02720
2850.96706	0.02727
2848.90711	0.02721
2846.84716	0.02704
2844.78722	0.02688
2842.72727	0.02673
2840.66732	0.02657
2838.60738	0.02640
2836.54743	0.02630
2834.48748	0.02624
2832.42753	0.02619
2830.36759	0.02615
2828.30764	0.02610
2826.24769	0.02600
2824.18774	0.02594
2822.12780	0.02592
2820.06785	0.02587
2818.00790	0.02583
2815.94796	0.02580
2813.88801	0.02578
2811.82806	0.02574
2809.76811	0.02567
2807.70817	0.02563
2805.64822	0.02564
2803.58827	0.02562
2801.52832	0.02556
2799.46838	0.02554
2797.40843	0.02554
2795.34848	0.02549
2793.28853	0.02542
2791.22859	0.02540
2789.16864	0.02538
2787.10869	0.02537
2785.04875	0.02537
2782.98880	0.02531
2780.92885	0.02525
2778.86890	0.02525
2776.80896	0.02526
2774.74901	0.02524
2772.68906	0.02517
2770.62911	0.02513
2768.56917	0.02512
2766.50922	0.02508
2764.44927	0.02502
2762.38933	0.02498
2760.32938	0.02496
2758.26943	0.02495
2756.20948	0.02495
2754.14954	0.02497
2752.08959	0.02497
2750.02964	0.02494
2747.96969	0.02487
2745.90975	0.02484
2743.84980	0.02485
2741.78985	0.02484
2739.72991	0.02481
2737.66996	0.02479
2735.61001	0.02477
2733.55006	0.02475
2731.49012	0.02472
2729.43017	0.02468
2727.37022	0.02465
2725.31027	0.02463
2723.25033	0.02458
2721.19038	0.02456
2719.13043	0.02457
2717.07048	0.02459
2715.01054	0.02459
2712.95059	0.02456
2710.89064	0.02453
2708.83070	0.02448
2706.77075	0.02444
2704.71080	0.02443
2702.65085	0.02443
2700.59091	0.02441
2698.53096	0.02438
2696.47101	0.02436
2694.41106	0.02431
2692.35112	0.02427
2690.29117	0.02427
2688.23122	0.02428
2686.17128	0.02426
2684.11133	0.02421
2682.05138	0.02416
2679.99143	0.02417
2677.93149	0.02421
2675.87154	0.02425
2673.81159	0.02424
2671.75164	0.02417
2669.69170	0.02418
2667.63175	0.02434
2665.57180	0.02458
2663.51186	0.02479
2661.45191	0.02492
2659.39196	0.02500
2657.33201	0.02508
2655.27207	0.02513
2653.21212	0.02515
2651.15217	0.02516
2649.09222	0.02516
2647.03228	0.02513
2644.97233	0.02508
2642.91238	0.02498
2640.85243	0.02488
2638.79249	0.02476
2636.73254	0.02461
2634.67259	0.02451
2632.61265	0.02449
2630.55270	0.02446
2628.49275	0.02440
2626.43280	0.02436
2624.37286	0.02426
2622.31291	0.02407
2620.25296	0.02390
2618.19301	0.02382
2616.13307	0.02380
2614.07312	0.02377
2612.01317	0.02372
2609.95323	0.02367
2607.89328	0.02357
2605.83333	0.02343
2603.77338	0.02333
2601.71344	0.02332
2599.65349	0.02333
2597.59354	0.02325
2595.53359	0.02313
2593.47365	0.02302
2591.41370	0.02293
2589.35375	0.02284
2587.29381	0.02279
2585.23386	0.02276
2583.17391	0.02274
2581.11396	0.02273
2579.05402	0.02271
2576.99407	0.02264
2574.93412	0.02253
2572.87417	0.02241
2570.81423	0.02234
2568.75428	0.02237
2566.69433	0.02236
2564.63438	0.02220
2562.57444	0.02206
2560.51449	0.02207
2558.45454	0.02207
2556.39460	0.02199
2554.33465	0.02193
2552.27470	0.02195
2550.21475	0.02193
2548.15481	0.02185
2546.09486	0.02177
2544.03491	0.02174
2541.97496	0.02171
2539.91502	0.02168
2537.85507	0.02172
2535.79512	0.02179
2533.73518	0.02178
2531.67523	0.02166
2529.61528	0.02151
2527.55533	0.02140
2525.49539	0.02134
2523.43544	0.02139
2521.37549	0.02150
2519.31554	0.02148
2517.25560	0.02136
2515.19565	0.02135
2513.13570	0.02139
2511.07576	0.02129
2509.01581	0.02116
2506.95586	0.02113
2504.89591	0.02115
2502.83597	0.02113
2500.77602	0.02107
2498.71607	0.02102
2496.65612	0.02102
2494.59618	0.02108
2492.53623	0.02114
2490.47628	0.02109
2488.41633	0.02100
2486.35639	0.02094
2484.29644	0.02089
2482.23649	0.02088
2480.17655	0.02089
2478.11660	0.02087
2476.05665	0.02086
2473.99670	0.02091
2471.93676	0.02095
2469.87681	0.02094
2467.81686	0.02096
2465.75691	0.02099
2463.69697	0.02096
2461.63702	0.02097
2459.57707	0.02109
2457.51713	0.02121
2455.45718	0.02123
2453.39723	0.02113
2451.33728	0.02101
2449.27734	0.02089
2447.21739	0.02075
2445.15744	0.02067
2443.09749	0.02061
2441.03755	0.02055
2438.97760	0.02050
2436.91765	0.02042
2434.85771	0.02038
2432.79776	0.02042
2430.73781	0.02041
2428.67786	0.02030
2426.61792	0.02020
2424.55797	0.02015
2422.49802	0.02014
2420.43807	0.02019
2418.37813	0.02017
2416.31818	0.02001
2414.25823	0.01989
2412.19828	0.01989
2410.13834	0.01983
2408.07839	0.01961
2406.01844	0.01944
2403.95850	0.01941
2401.89855	0.01939
2399.83860	0.01941
2397.77865	0.01946
2395.71871	0.01941
2393.65876	0.01934
2391.59881	0.01934
2389.53886	0.01934
2387.47892	0.01930
2385.41897	0.01923
2383.35902	0.01917
2381.29908	0.01921
2379.23913	0.01932
2377.17918	0.01944
2375.11923	0.01950
2373.05929	0.01942
2370.99934	0.01925
2368.93939	0.01927
2366.87944	0.01967
2364.81950	0.02028
2362.75955	0.02074
2360.69960	0.02096
2358.63966	0.02106
2356.57971	0.02103
2354.51976	0.02100
2352.45981	0.02101
2350.39987	0.02089
2348.33992	0.02067
2346.27997	0.02063
2344.22002	0.02083
2342.16008	0.02092
2340.10013	0.02083
2338.04018	0.02087
2335.98023	0.02097
2333.92029	0.02094
2331.86034	0.02106
2329.80039	0.02179
2327.74045	0.02328
2325.68050	0.02448
2323.62055	0.02431
2321.56060	0.02341
2319.50066	0.02270
2317.44071	0.02223
2315.38076	0.02196
2313.32081	0.02183
2311.26087	0.02174
2309.20092	0.02168
2307.14097	0.02160
2305.08103	0.02144
2303.02108	0.02134
2300.96113	0.02135
2298.90118	0.02143
2296.84124	0.02158
2294.78129	0.02177
2292.72134	0.02200
2290.66139	0.02229
2288.60145	0.02248
2286.54150	0.02233
2284.48155	0.02192
2282.42161	0.02152
2280.36166	0.02123
2278.30171	0.02099
2276.24176	0.02073
2274.18182	0.02054
2272.12187	0.02048
2270.06192	0.02037
2268.00197	0.02007
2265.94203	0.01975
2263.88208	0.01969
2261.82213	0.01987
2259.76218	0.01998
2257.70224	0.01971
2255.64229	0.01921
2253.58234	0.01889
2251.52240	0.01884
2249.46245	0.01896
2247.40250	0.01922
2245.34255	0.01939
2243.28261	0.01923
2241.22266	0.01898
2239.16271	0.01896
2237.10276	0.01900
2235.04282	0.01889
2232.98287	0.01872
2230.92292	0.01871
2228.86298	0.01881
2226.80303	0.01879
2224.74308	0.01867
2222.68313	0.01852
2220.62319	0.01820
2218.56324	0.01792
2216.50329	0.01792
2214.44334	0.01801
2212.38340	0.01799
2210.32345	0.01802
2208.26350	0.01808
2206.20356	0.01813
2204.14361	0.01825
2202.08366	0.01832
2200.02371	0.01817
2197.96377	0.01792
2195.90382	0.01781
2193.84387	0.01787
2191.78392	0.01801
2189.72398	0.01804
2187.66403	0.01801
2185.60408	0.01782
2183.54413	0.01725
2181.48419	0.01686
2179.42424	0.01681
2177.36429	0.01631
2175.30435	0.01596
2173.24440	0.01694
2171.18445	0.01858
2169.12450	0.01960
2167.06456	0.01989
2165.00461	0.01997
2162.94466	0.01871
2160.88471	0.01419
2158.82477	0.00939
2156.76482	0.00855
2154.70487	0.01001
2152.64493	0.01148
2150.58498	0.01239
2148.52503	0.01253
2146.46508	0.01243
2144.40514	0.01251
2142.34519	0.01271
2140.28524	0.01293
2138.22529	0.01264
2136.16535	0.01177
2134.10540	0.01129
2132.04545	0.01174
2129.98551	0.01267
2127.92556	0.01361
2125.86561	0.01444
2123.80566	0.01516
2121.74572	0.01567
2119.68577	0.01608
2117.62582	0.01665
2115.56587	0.01716
2113.50593	0.01727
2111.44598	0.01727
2109.38603	0.01734
2107.32608	0.01722
2105.26614	0.01695
2103.20619	0.01681
2101.14624	0.01673
2099.08630	0.01637
2097.02635	0.01580
2094.96640	0.01547
2092.90645	0.01577
2090.84651	0.01647
2088.78656	0.01702
2086.72661	0.01725
2084.66666	0.01741
2082.60672	0.01754
2080.54677	0.01758
2078.48682	0.01754
2076.42688	0.01739
2074.36693	0.01724
2072.30698	0.01715
2070.24703	0.01707
2068.18709	0.01697
2066.12714	0.01686
2064.06719	0.01672
2062.00724	0.01669
2059.94730	0.01692
2057.88735	0.01725
2055.82740	0.01751
2053.76746	0.01830
2051.70751	0.01919
2049.64756	0.01859
2047.58761	0.01731
2045.52767	0.01684
2043.46772	0.01691
2041.40777	0.01710
2039.34782	0.01721
2037.28788	0.01683
2035.22793	0.01595
2033.16798	0.01540
2031.10803	0.01510
2029.04809	0.01433
2026.98814	0.01379
2024.92819	0.01407
2022.86825	0.01446
2020.80830	0.01431
2018.74835	0.01399
2016.68840	0.01407
2014.62846	0.01423
2012.56851	0.01426
2010.50856	0.01427
2008.44861	0.01370
2006.38867	0.01292
2004.32872	0.01315
2002.26877	0.01418
2000.20883	0.01511
1998.14888	0.01544
1996.08893	0.01550
1994.02898	0.01589
1991.96904	0.01643
1989.90909	0.01668
1987.84914	0.01694
1985.78919	0.01765
1983.72925	0.01873
1981.66930	0.01926
1979.60935	0.01772
1977.54941	0.01495
1975.48946	0.01342
1973.42951	0.01308
1971.36956	0.01294
1969.30962	0.01302
1967.24967	0.01343
1965.18972	0.01379
1963.12977	0.01376
1961.06983	0.01336
1959.00988	0.01301
1956.94993	0.01321
1954.88998	0.01370
1952.83004	0.01405
1950.77009	0.01408
1948.71014	0.01395
1946.65020	0.01392
1944.59025	0.01404
1942.53030	0.01422
1940.47035	0.01442
1938.41041	0.01458
1936.35046	0.01465
1934.29051	0.01459
1932.23056	0.01455
1930.17062	0.01463
1928.11067	0.01470
1926.05072	0.01467
1923.99078	0.01484
1921.93083	0.01519
1919.87088	0.01538
1917.81093	0.01548
1915.75099	0.01563
1913.69104	0.01575
1911.63109	0.01583
1909.57114	0.01590
1907.51120	0.01599
1905.45125	0.01614
1903.39130	0.01634
1901.33136	0.01646
1899.27141	0.01649
1897.21146	0.01650
1895.15151	0.01653
1893.09157	0.01661
1891.03162	0.01671
1888.97167	0.01685
1886.91172	0.01695
1884.85178	0.01701
1882.79183	0.01704
1880.73188	0.01706
1878.67193	0.01710
1876.61199	0.01713
1874.55204	0.01714
1872.49209	0.01716
1870.43215	0.01721
1868.37220	0.01723
1866.31225	0.01710
1864.25230	0.01699
1862.19236	0.01704
1860.13241	0.01706
1858.07246	0.01697
1856.01251	0.01683
1853.95257	0.01669
1851.89262	0.01656
1849.83267	0.01644
1847.77273	0.01632
1845.71278	0.01624
1843.65283	0.01628
1841.59288	0.01625
1839.53294	0.01620
1837.47299	0.01624
1835.41304	0.01625
1833.35309	0.01616
1831.29315	0.01617
1829.23320	0.01629
1827.17325	0.01628
1825.11331	0.01628
1823.05336	0.01631
1820.99341	0.01612
1818.93346	0.01579
1816.87352	0.01569
1814.81357	0.01591
1812.75362	0.01623
1810.69367	0.01654
1808.63373	0.01672
1806.57378	0.01675
1804.51383	0.01671
1802.45388	0.01673
1800.39394	0.01686
1798.33399	0.01699
1796.27404	0.01704
1794.21410	0.01706
1792.15415	0.01717
1790.09420	0.01727
1788.03425	0.01725
1785.97431	0.01724
1783.91436	0.01724
1781.85441	0.01719
1779.79446	0.01717
1777.73452	0.01717
1775.67457	0.01718
1773.61462	0.01731
1771.55468	0.01745
1769.49473	0.01739
1767.43478	0.01731
1765.37483	0.01729
1763.31489	0.01735
1761.25494	0.01747
1759.19499	0.01754
1757.13504	0.01758
1755.07510	0.01758
1753.01515	0.01755
1750.95520	0.01776
1748.89526	0.01812
1746.83531	0.01825
1744.77536	0.01827
1742.71541	0.01827
1740.65547	0.01834
1738.59552	0.01847
1736.53557	0.01852
1734.47562	0.01874
1732.41568	0.01903
1730.35573	0.01905
1728.29578	0.01905
1726.23583	0.01908
1724.17589	0.01917
1722.11594	0.01927
1720.05599	0.01936
1717.99605	0.01968
1715.93610	0.02015
1713.87615	0.02032
1711.81620	0.02028
1709.75626	0.02021
1707.69631	0.02028
1705.63636	0.02054
1703.57641	0.02071
1701.51647	0.02087
1699.45652	0.02131
1697.39657	0.02160
1695.33663	0.02173
1693.27668	0.02176
1691.21673	0.02181
1689.15678	0.02200
1687.09684	0.02207
1685.03689	0.02227
1682.97694	0.02277
1680.91699	0.02290
1678.85705	0.02285
1676.79710	0.02292
1674.73715	0.02319
1672.67721	0.02338
1670.61726	0.02356
1668.55731	0.02380
1666.49736	0.02379
1664.43742	0.02377
1662.37747	0.02401
1660.31752	0.02420
1658.25757	0.02418
1656.19763	0.02414
1654.13768	0.02445
1652.07773	0.02509
1650.01778	0.02505
1647.95784	0.02503
1645.89789	0.02531
1643.83794	0.02531
1641.77800	0.02519
1639.71805	0.02516
1637.65810	0.02534
1635.59815	0.02583
1633.53821	0.02602
1631.47826	0.02585
1629.41831	0.02583
1627.35836	0.02599
1625.29842	0.02611
1623.23847	0.02624
1621.17852	0.02629
1619.11858	0.02622
1617.05863	0.02638
1614.99868	0.02662
1612.93873	0.02657
1610.87879	0.02650
1608.81884	0.02653
1606.75889	0.02653
1604.69894	0.02649
1602.63900	0.02647
1600.57905	0.02643
1598.51910	0.02638
1596.45916	0.02635
1594.39921	0.02630
1592.33926	0.02620
1590.27931	0.02610
1588.21937	0.02602
1586.15942	0.02590
1584.09947	0.02576
1582.03952	0.02561
1579.97958	0.02544
1577.91963	0.02538
1575.85968	0.02552
1573.79973	0.02546
1571.73979	0.02521
1569.67984	0.02511
1567.61989	0.02508
1565.55995	0.02496
1563.50000	0.02476
1561.44005	0.02453
1559.38010	0.02465
1557.32016	0.02492
1555.26021	0.02468
1553.20026	0.02441
1551.14031	0.02423
1549.08037	0.02410
1547.02042	0.02398
1544.96047	0.02393
1542.90053	0.02393
1540.84058	0.02402
1538.78063	0.02408
1536.72068	0.02384
1534.66074	0.02365
1532.60079	0.02365
1530.54084	0.02355
1528.48089	0.02343
1526.42095	0.02343
1524.36100	0.02340
1522.30105	0.02339
1520.24111	0.02338
1518.18116	0.02321
1516.12121	0.02302
1514.06126	0.02285
1512.00132	0.02270
1509.94137	0.02263
1507.88142	0.02274
1505.82147	0.02285
1503.76153	0.02257
1501.70158	0.02225
1499.64163	0.02211
1497.58168	0.02212
1495.52174	0.02212
1493.46179	0.02200
1491.40184	0.02198
1489.34190	0.02213
1487.28195	0.02218
1485.22200	0.02209
1483.16205	0.02202
1481.10211	0.02204
1479.04216	0.02210
1476.98221	0.02223
1474.92226	0.02250
1472.86232	0.02289
1470.80237	0.02313
1468.74242	0.02314
1466.68248	0.02315
1464.62253	0.02331
1462.56258	0.02341
1460.50263	0.02341
1458.44269	0.02365
1456.38274	0.02410
1454.32279	0.02412
1452.26284	0.02397
1450.20290	0.02391
1448.14295	0.02395
1446.08300	0.02399
1444.02306	0.02395
1441.96311	0.02390
1439.90316	0.02387
1437.84321	0.02399
1435.78327	0.02425
1433.72332	0.02431
1431.66337	0.02428
1429.60342	0.02432
1427.54348	0.02432
1425.48353	0.02431
1423.42358	0.02438
1421.36363	0.02445
1419.30369	0.02462
1417.24374	0.02479
1415.18379	0.02474
1413.12385	0.02467
1411.06390	0.02466
1409.00395	0.02457
1406.94400	0.02443
1404.88406	0.02433
1402.82411	0.02426
1400.76416	0.02419
1398.70421	0.02411
1396.64427	0.02405
1394.58432	0.02409
1392.52437	0.02399
1390.46443	0.02374
1388.40448	0.02364
1386.34453	0.02371
1384.28458	0.02371
1382.22464	0.02366
1380.16469	0.02363
1378.10474	0.02358
1376.04479	0.02356
1373.98485	0.02356
1371.92490	0.02345
1369.86495	0.02329
1367.80501	0.02321
1365.74506	0.02317
1363.68511	0.02313
1361.62516	0.02306
1359.56522	0.02293
1357.50527	0.02279
1355.44532	0.02269
1353.38537	0.02262
1351.32543	0.02256
1349.26548	0.02252
1347.20553	0.02247
1345.14558	0.02240
1343.08564	0.02234
1341.02569	0.02236
1338.96574	0.02243
1336.90580	0.02242
1334.84585	0.02237
1332.78590	0.02232
1330.72595	0.02225
1328.66601	0.02220
1326.60606	0.02219
1324.54611	0.02221
1322.48616	0.02227
1320.42622	0.02236
1318.36627	0.02245
1316.30632	0.02251
1314.24638	0.02253
1312.18643	0.02252
1310.12648	0.02249
1308.06653	0.02250
1306.00659	0.02257
1303.94664	0.02266
1301.88669	0.02278
1299.82674	0.02290
1297.76680	0.02303
1295.70685	0.02318
1293.64690	0.02333
1291.58696	0.02347
1289.52701	0.02366
1287.46706	0.02393
1285.40711	0.02422
1283.34717	0.02447
1281.28722	0.02471
1279.22727	0.02493
1277.16732	0.02515
1275.10738	0.02536
1273.04743	0.02557
1270.98748	0.02578
1268.92753	0.02600
1266.86759	0.02622
1264.80764	0.02645
1262.74769	0.02672
1260.68775	0.02698
1258.62780	0.02721
1256.56785	0.02747
1254.50790	0.02781
1252.44796	0.02825
1250.38801	0.02879
1248.32806	0.02931
1246.26811	0.02977
1244.20817	0.03024
1242.14822	0.03075
1240.08827	0.03122
1238.02833	0.03166
1235.96838	0.03217
1233.90843	0.03278
1231.84848	0.03345
1229.78854	0.03416
1227.72859	0.03497
1225.66864	0.03594
1223.60869	0.03714
1221.54875	0.03852
1219.48880	0.04004
1217.42885	0.04170
1215.36891	0.04346
1213.30896	0.04525
1211.24901	0.04706
1209.18906	0.04886
1207.12912	0.05062
1205.06917	0.05234
1203.00922	0.05406
1200.94927	0.05575
1198.88933	0.05738
1196.82938	0.05899
1194.76943	0.06060
1192.70949	0.06216
1190.64954	0.06368
1188.58959	0.06520
1186.52964	0.06682
1184.46970	0.06858
1182.40975	0.07044
1180.34980	0.07242
1178.28985	0.07459
1176.22991	0.07701
1174.16996	0.07972
1172.11001	0.08268
1170.05006	0.08591
1167.99012	0.08940
1165.93017	0.09282
1163.87022	0.09538
1161.81028	0.09616
1159.75033	0.09499
1157.69038	0.09304
1155.63043	0.09187
1153.57049	0.09203
1151.51054	0.09324
1149.45059	0.09496
1147.39064	0.09687
1145.33070	0.09888
1143.27075	0.10102
1141.21080	0.10332
1139.15086	0.10577
1137.09091	0.10834
1135.03096	0.11107
1132.97101	0.11392
1130.91107	0.11686
1128.85112	0.11994
1126.79117	0.12311
1124.73122	0.12632
1122.67128	0.12963
1120.61133	0.13310
1118.55138	0.13670
1116.49144	0.14035
1114.43149	0.14405
1112.37154	0.14775
1110.31159	0.15143
1108.25165	0.15520
1106.19170	0.15923
1104.13175	0.16344
1102.07180	0.16762
1100.01186	0.17178
1097.95191	0.17602
1095.89196	0.18031
1093.83201	0.18455
1091.77207	0.18877
1089.71212	0.19295
1087.65217	0.19691
1085.59223	0.20039
1083.53228	0.20340
1081.47233	0.20604
1079.41238	0.20831
1077.35244	0.21015
1075.29249	0.21149
1073.23254	0.21242
1071.17259	0.21329
1069.11265	0.21455
1067.05270	0.21627
1064.99275	0.21815
1062.93281	0.21992
1060.87286	0.22141
1058.81291	0.22254
1056.75296	0.22323
1054.69302	0.22341
1052.63307	0.22324
1050.57312	0.22288
1048.51317	0.22241
1046.45323	0.22185
1044.39328	0.22136
1042.33333	0.22104
1040.27339	0.22079
1038.21344	0.22051
1036.15349	0.22010
1034.09354	0.21950
1032.03360	0.21862
1029.97365	0.21741
1027.91370	0.21594
1025.85375	0.21431
1023.79381	0.21258
1021.73386	0.21076
1019.67391	0.20903
1017.61396	0.20758
1015.55402	0.20632
1013.49407	0.20506
1011.43412	0.20380
1009.37418	0.20251
1007.31423	0.20106
1005.25428	0.19938
1003.19433	0.19754
1001.13439	0.19550
999.07444	0.19328
997.01449	0.19101
994.95454	0.18870
992.89460	0.18638
990.83465	0.18412
988.77470	0.18185
986.71476	0.17952
984.65481	0.17717
982.59486	0.17480
980.53491	0.17239
978.47497	0.16991
976.41502	0.16736
974.35507	0.16482
972.29512	0.16226
970.23518	0.15973
968.17523	0.15732
966.11528	0.15492
964.05534	0.15248
961.99539	0.15009
959.93544	0.14782
957.87549	0.14566
955.81555	0.14356
953.75560	0.14148
951.69565	0.13943
949.63570	0.13743
947.57576	0.13549
945.51581	0.13365
943.45586	0.13194
941.39591	0.13031
939.33597	0.12868
937.27602	0.12699
935.21607	0.12518
933.15613	0.12339
931.09618	0.12169
929.03623	0.11997
926.97628	0.11821
924.91634	0.11654
922.85639	0.11500
920.79644	0.11360
918.73649	0.11225
916.67655	0.11088
914.61660	0.10947
912.55665	0.10790
910.49671	0.10608
908.43676	0.10403
906.37681	0.10181
904.31686	0.09944
902.25692	0.09710
900.19697	0.09492
898.13702	0.09284
896.07707	0.09080
894.01713	0.08876
891.95718	0.08674
889.89723	0.08487
887.83729	0.08312
885.77734	0.08135
883.71739	0.07957
881.65744	0.07784
879.59750	0.07608
877.53755	0.07432
875.47760	0.07260
873.41765	0.07092
871.35771	0.06922
869.29776	0.06750
867.23781	0.06582
865.17786	0.06421
863.11792	0.06263
861.05797	0.06108
858.99802	0.05963
856.93808	0.05827
854.87813	0.05695
852.81818	0.05567
850.75823	0.05452
848.69829	0.05351
846.63834	0.05255
844.57839	0.05167
842.51844	0.05097
840.45850	0.05049
838.39855	0.05013
836.33860	0.04979
834.27866	0.04956
832.21871	0.04950
830.15876	0.04957
828.09881	0.04979
826.03887	0.05017
823.97892	0.05081
821.91897	0.05182
819.85902	0.05318
817.79908	0.05504
815.73913	0.05767
813.67918	0.06141
811.61924	0.06679
809.55929	0.07439
807.49934	0.08444
805.43939	0.09657
803.37945	0.10980
801.31950	0.12264
799.25955	0.13328
797.19960	0.13987
795.13966	0.14199
793.07971	0.14118
791.01976	0.13956
788.95981	0.13886
786.89987	0.14046
784.83992	0.14499
782.77997	0.15176
780.72003	0.15890
778.66008	0.16397
776.60013	0.16516
774.54018	0.16243
772.48024	0.15720
770.42029	0.15105
768.36034	0.14487
766.30039	0.13900
764.24045	0.13359
762.18050	0.12860
760.12055	0.12390
758.06061	0.11945
756.00066	0.11530
753.94071	0.11153
751.88076	0.10810
749.82082	0.10484
747.76087	0.10173
745.70092	0.09881
743.64097	0.09601
741.58103	0.09336
739.52108	0.09095
737.46113	0.08874
735.40119	0.08666
733.34124	0.08480
731.28129	0.08318
729.22134	0.08169
727.16140	0.08025
725.10145	0.07884
723.04150	0.07749
720.98155	0.07631
718.92161	0.07529
716.86166	0.07435
714.80171	0.07362
712.74176	0.07321
710.68182	0.07315
708.62187	0.07356
706.56192	0.07456
704.50198	0.07643
702.44203	0.07994
700.38208	0.08599
698.32213	0.09431
696.26219	0.10215
694.20224	0.10550
692.14229	0.10321
690.08234	0.09762
688.02240	0.09139
685.96245	0.08587
683.90250	0.08146
681.84256	0.07784
679.78261	0.07461
677.72266	0.07185
675.66271	0.06961
673.60277	0.06766
671.54282	0.06600
669.48287	0.06461
667.42292	0.06308
665.36298	0.06145
663.30303	0.05999
661.24308	0.05873
659.18314	0.05779
657.12319	0.05709
655.06324	0.05646
653.00329	0.05582
650.94335	0.05528
648.88340	0.05475
646.82345	0.05402
644.76350	0.05323
642.70356	0.05252
640.64361	0.05178
638.58366	0.05099
636.52371	0.05030
634.46377	0.04972
632.40382	0.04915
630.34387	0.04859
628.28393	0.04806
626.22398	0.04760
624.16403	0.04727
622.10408	0.04706
620.04414	0.04678
617.98419	0.04647
615.92424	0.04634
613.86429	0.04629
611.80435	0.04620
609.74440	0.04610
607.68445	0.04603
605.62451	0.04612
603.56456	0.04629
601.50461	0.04637
599.44466	0.04645
597.38472	0.04661
595.32477	0.04685
593.26482	0.04706
591.20487	0.04722
589.14493	0.04740
587.08498	0.04767
585.02503	0.04796
582.96509	0.04809
580.90514	0.04822
578.84519	0.04857
576.78524	0.04898
574.72530	0.04936
572.66535	0.04973
570.60540	0.05023
568.54545	0.05092
566.48551	0.05167
564.42556	0.05234
562.36561	0.05300
560.30566	0.05391
558.24572	0.05513
556.18577	0.05651
554.12582	0.05812
552.06588	0.06031
550.00593	0.06328
547.94598	0.06681
545.88603	0.07084
543.82609	0.07555
541.76614	0.08088
539.70619	0.08658
537.64624	0.09251
535.58630	0.09853
533.52635	0.10435
531.46640	0.10972
529.40646	0.11433
527.34651	0.11846
525.28656	0.12245
523.22661	0.12574
521.16667	0.12818
519.10672	0.12985
517.04677	0.13047
514.98682	0.13020
512.92688	0.12909
510.86693	0.12721
508.80698	0.12515
506.74704	0.12402
504.68709	0.12491
502.62714	0.12851
500.56719	0.13415
498.50725	0.14013
496.44730	0.14605
494.38735	0.15214
492.32740	0.15859
490.26746	0.16492
488.20751	0.17069
486.14756	0.17675
484.08761	0.18391
482.02767	0.19176
479.96772	0.19973
477.90777	0.20803
475.84783	0.21664
473.78788	0.22588
471.72793	0.23594
469.66798	0.24476
467.60804	0.25222
465.54809	0.25946
463.48814	0.26617
461.42819	0.27160
459.36825	0.27582
457.30830	0.27987
455.24835	0.28254
453.18841	0.28316
451.12846	0.28209
449.06851	0.27984
447.00856	0.27728
444.94862	0.27420
442.88867	0.27021
440.82872	0.26541
438.76877	0.26049
436.70883	0.25602
434.64888	0.25227
432.58893	0.24881
430.52899	0.24475
428.46904	0.23992
426.40909	0.23447
424.34914	0.22816
422.28920	0.22138
420.22925	0.21411
418.16930	0.20559
416.10935	0.19673
414.04941	0.18646
411.98946	0.17398
409.92951	0.16065
407.86956	0.14902
405.80962	0.14363
403.74967	0.14818
401.68972	0.16263
399.62978	0.18636
