3996.29776	0.02659
3994.23781	0.02655
3992.17786	0.02657
3990.11791	0.02667
3988.05797	0.02670
3985.99802	0.02662
3983.93807	0.02655
3981.87813	0.02658
3979.81818	0.02666
3977.75823	0.02670
3975.69828	0.02672
3973.63834	0.02671
3971.57839	0.02662
3969.51844	0.02651
3967.45849	0.02649
3965.39855	0.02652
3963.33860	0.02658
3961.27865	0.02664
3959.21870	0.02660
3957.15876	0.02651
3955.09881	0.02641
3953.03886	0.02628
3950.97892	0.02632
3948.91897	0.02660
3946.85902	0.02677
3944.79907	0.02679
3942.73913	0.02695
3940.67918	0.02696
3938.61923	0.02671
3936.55928	0.02652
3934.49934	0.02660
3932.43939	0.02690
3930.37944	0.02700
3928.31950	0.02673
3926.25955	0.02657
3924.19960	0.02666
3922.13965	0.02663
3920.07971	0.02656
3918.01976	0.02673
3915.95981	0.02685
3913.89986	0.02664
3911.83992	0.02635
3909.77997	0.02618
3907.72002	0.02614
3905.66008	0.02639
3903.60013	0.02690
3901.54018	0.02731
3899.48023	0.02743
3897.42029	0.02710
3895.36034	0.02655
3893.30039	0.02636
3891.24044	0.02652
3889.18050	0.02637
3887.12055	0.02625
3885.06060	0.02665
3883.00065	0.02680
3880.94071	0.02679
3878.88076	0.02677
3876.82081	0.02648
3874.76087	0.02640
3872.70092	0.02652
3870.64097	0.02679
3868.58102	0.02709
3866.52108	0.02694
3864.46113	0.02691
3862.40118	0.02698
3860.34123	0.02669
3858.28129	0.02628
3856.22134	0.02603
3854.16139	0.02667
3852.10145	0.02766
3850.04150	0.02713
3847.98155	0.02629
3845.92160	0.02592
3843.86166	0.02600
3841.80171	0.02619
3839.74176	0.02647
3837.68181	0.02691
3835.62187	0.02698
3833.56192	0.02670
3831.50197	0.02645
3829.44203	0.02619
3827.38208	0.02596
3825.32213	0.02585
3823.26218	0.02591
3821.20224	0.02651
3819.14229	0.02675
3817.08234	0.02646
3815.02239	0.02645
3812.96245	0.02609
3810.90250	0.02543
3808.84255	0.02525
3806.78260	0.02573
3804.72266	0.02603
3802.66271	0.02628
3800.60276	0.02685
3798.54282	0.02676
3796.48287	0.02630
3794.42292	0.02586
3792.36297	0.02548
3790.30303	0.02533
3788.24308	0.02532
3786.18313	0.02540
3784.12318	0.02550
3782.06324	0.02547
3780.00329	0.02558
3777.94334	0.02569
3775.88340	0.02545
3773.82345	0.02518
3771.76350	0.02526
3769.70355	0.02572
3767.64361	0.02594
3765.58366	0.02586
3763.52371	0.02569
3761.46376	0.02550
3759.40382	0.02563
3757.34387	0.02577
3755.28392	0.02554
3753.22398	0.02553
3751.16403	0.02633
3749.10408	0.02692
3747.04413	0.02657
3744.98419	0.02657
3742.92424	0.02685
3740.86429	0.02635
3738.80434	0.02586
3736.74440	0.02612
3734.68445	0.02672
3732.62450	0.02658
3730.56455	0.02597
3728.50461	0.02563
3726.44466	0.02577
3724.38471	0.02601
3722.32477	0.02589
3720.26482	0.02560
3718.20487	0.02531
3716.14492	0.02505
3714.08498	0.02501
3712.02503	0.02564
3709.96508	0.02636
3707.90513	0.02619
3705.84519	0.02574
3703.78524	0.02566
3701.72529	0.02608
3699.66535	0.02637
3697.60540	0.02626
3695.54545	0.02608
3693.48550	0.02599
3691.42556	0.02624
3689.36561	0.02698
3687.30566	0.02726
3685.24571	0.02669
3683.18577	0.02605
3681.12582	0.02577
3679.06587	0.02574
3677.00593	0.02617
3674.94598	0.02715
3672.88603	0.02723
3670.82608	0.02706
3668.76614	0.02721
3666.70619	0.02673
3664.64624	0.02611
3662.58629	0.02595
3660.52635	0.02598
3658.46640	0.02603
3656.40645	0.02640
3654.34651	0.02664
3652.28656	0.02659
3650.22661	0.02730
3648.16666	0.02848
3646.10672	0.02824
3644.04677	0.02743
3641.98682	0.02700
3639.92687	0.02687
3637.86693	0.02688
3635.80698	0.02708
3633.74703	0.02729
3631.68708	0.02732
3629.62714	0.02789
3627.56719	0.02883
3625.50724	0.02866
3623.44730	0.02811
3621.38735	0.02803
3619.32740	0.02857
3617.26745	0.02898
3615.20751	0.02881
3613.14756	0.02857
3611.08761	0.02848
3609.02766	0.02864
3606.96772	0.02877
3604.90777	0.02842
3602.84782	0.02806
3600.78788	0.02815
3598.72793	0.02839
3596.66798	0.02852
3594.60803	0.02864
3592.54809	0.02856
3590.48814	0.02837
3588.42819	0.02868
3586.36824	0.02920
3584.30830	0.02900
3582.24835	0.02860
3580.18840	0.02841
3578.12846	0.02832
3576.06851	0.02834
3574.00856	0.02842
3571.94861	0.02843
3569.88867	0.02860
3567.82872	0.02943
3565.76877	0.03020
3563.70882	0.02996
3561.64888	0.02954
3559.58893	0.02940
3557.52898	0.02923
3555.46903	0.02906
3553.40909	0.02917
3551.34914	0.02939
3549.28919	0.02949
3547.22925	0.02972
3545.16930	0.02998
3543.10935	0.02991
3541.04940	0.02972
3538.98946	0.02961
3536.92951	0.02963
3534.86956	0.02968
3532.80961	0.02973
3530.74967	0.02983
3528.68972	0.03001
3526.62977	0.03020
3524.56983	0.03036
3522.50988	0.03045
3520.44993	0.03038
3518.38998	0.03027
3516.33004	0.03022
3514.27009	0.03018
3512.21014	0.03021
3510.15019	0.03040
3508.09025	0.03057
3506.03030	0.03061
3503.97035	0.03075
3501.91041	0.03099
3499.85046	0.03100
3497.79051	0.03085
3495.73056	0.03076
3493.67062	0.03077
3491.61067	0.03083
3489.55072	0.03091
3487.49077	0.03104
3485.43083	0.03108
3483.37088	0.03112
3481.31093	0.03126
3479.25098	0.03129
3477.19104	0.03124
3475.13109	0.03131
3473.07114	0.03143
3471.01120	0.03148
3468.95125	0.03153
3466.89130	0.03159
3464.83135	0.03162
3462.77141	0.03163
3460.71146	0.03165
3458.65151	0.03170
3456.59156	0.03179
3454.53162	0.03185
3452.47167	0.03185
3450.41172	0.03188
3448.35178	0.03203
3446.29183	0.03219
3444.23188	0.03216
3442.17193	0.03203
3440.11199	0.03195
3438.05204	0.03194
3435.99209	0.03199
3433.93214	0.03205
3431.87220	0.03209
3429.81225	0.03217
3427.75230	0.03226
3425.69236	0.03227
3423.63241	0.03227
3421.57246	0.03236
3419.51251	0.03254
3417.45257	0.03265
3415.39262	0.03256
3413.33267	0.03243
3411.27272	0.03240
3409.21278	0.03243
3407.15283	0.03249
3405.09288	0.03264
3403.03293	0.03276
3400.97299	0.03279
3398.91304	0.03281
3396.85309	0.03281
3394.79315	0.03273
3392.73320	0.03273
3390.67325	0.03283
3388.61330	0.03292
3386.55336	0.03297
3384.49341	0.03306
3382.43346	0.03306
3380.37351	0.03297
3378.31357	0.03295
3376.25362	0.03293
3374.19367	0.03289
3372.13373	0.03291
3370.07378	0.03294
3368.01383	0.03293
3365.95388	0.03296
3363.89394	0.03300
3361.83399	0.03301
3359.77404	0.03299
3357.71409	0.03297
3355.65415	0.03299
3353.59420	0.03305
3351.53425	0.03307
3349.47431	0.03310
3347.41436	0.03314
3345.35441	0.03309
3343.29446	0.03294
3341.23452	0.03284
3339.17457	0.03292
3337.11462	0.03305
3335.05467	0.03303
3332.99473	0.03298
3330.93478	0.03294
3328.87483	0.03288
3326.81488	0.03284
3324.75494	0.03288
3322.69499	0.03292
3320.63504	0.03293
3318.57510	0.03290
3316.51515	0.03290
3314.45520	0.03289
3312.39525	0.03287
3310.33531	0.03290
3308.27536	0.03297
3306.21541	0.03299
3304.15546	0.03296
3302.09552	0.03295
3300.03557	0.03295
3297.97562	0.03289
3295.91568	0.03278
3293.85573	0.03275
3291.79578	0.03279
3289.73583	0.03277
3287.67589	0.03274
3285.61594	0.03276
3283.55599	0.03276
3281.49604	0.03272
3279.43610	0.03270
3277.37615	0.03273
3275.31620	0.03277
3273.25626	0.03277
3271.19631	0.03277
3269.13636	0.03275
3267.07641	0.03266
3265.01647	0.03256
3262.95652	0.03250
3260.89657	0.03245
3258.83662	0.03241
3256.77668	0.03236
3254.71673	0.03232
3252.65678	0.03233
3250.59683	0.03238
3248.53689	0.03242
3246.47694	0.03237
3244.41699	0.03227
3242.35705	0.03216
3240.29710	0.03204
3238.23715	0.03193
3236.17720	0.03184
3234.11726	0.03184
3232.05731	0.03197
3229.99736	0.03209
3227.93741	0.03208
3225.87747	0.03200
3223.81752	0.03196
3221.75757	0.03198
3219.69763	0.03196
3217.63768	0.03185
3215.57773	0.03178
3213.51778	0.03174
3211.45784	0.03168
3209.39789	0.03162
3207.33794	0.03159
3205.27799	0.03159
3203.21805	0.03158
3201.15810	0.03150
3199.09815	0.03139
3197.03821	0.03129
3194.97826	0.03120
3192.91831	0.03112
3190.85836	0.03108
3188.79842	0.03105
3186.73847	0.03105
3184.67852	0.03109
3182.61857	0.03112
3180.55863	0.03111
3178.49868	0.03108
3176.43873	0.03104
3174.37878	0.03097
3172.31884	0.03090
3170.25889	0.03085
3168.19894	0.03084
3166.13900	0.03084
3164.07905	0.03078
3162.01910	0.03066
3159.95915	0.03057
3157.89921	0.03053
3155.83926	0.03047
3153.77931	0.03045
3151.71936	0.03046
3149.65942	0.03039
3147.59947	0.03028
3145.53952	0.03018
3143.47958	0.03015
3141.41963	0.03017
3139.35968	0.03018
3137.29973	0.03015
3135.23979	0.03011
3133.17984	0.03004
3131.11989	0.02995
3129.05994	0.02987
3127.00000	0.02987
3124.94005	0.02993
3122.88010	0.02998
3120.82016	0.02997
3118.76021	0.02992
3116.70026	0.02989
3114.64031	0.02985
3112.58037	0.02970
3110.52042	0.02957
3108.46047	0.02960
3106.40052	0.02962
3104.34058	0.02954
3102.28063	0.02953
3100.22068	0.02958
3098.16073	0.02956
3096.10079	0.02950
3094.04084	0.02941
3091.98089	0.02933
3089.92095	0.02933
3087.86100	0.02938
3085.80105	0.02941
3083.74110	0.02938
3081.68116	0.02930
3079.62121	0.02923
3077.56126	0.02921
3075.50131	0.02917
3073.44137	0.02910
3071.38142	0.02902
3069.32147	0.02895
3067.26153	0.02888
3065.20158	0.02879
3063.14163	0.02872
3061.08168	0.02875
3059.02174	0.02880
3056.96179	0.02875
3054.90184	0.02865
3052.84189	0.02861
3050.78195	0.02866
3048.72200	0.02864
3046.66205	0.02853
3044.60211	0.02850
3042.54216	0.02843
3040.48221	0.02828
3038.42226	0.02824
3036.36232	0.02833
3034.30237	0.02838
3032.24242	0.02840
3030.18247	0.02839
3028.12253	0.02835
3026.06258	0.02828
3024.00263	0.02824
3021.94268	0.02818
3019.88274	0.02810
3017.82279	0.02808
3015.76284	0.02804
3013.70290	0.02801
3011.64295	0.02803
3009.58300	0.02803
3007.52305	0.02795
3005.46311	0.02785
3003.40316	0.02778
3001.34321	0.02769
2999.28326	0.02767
2997.22332	0.02775
2995.16337	0.02775
2993.10342	0.02769
2991.04348	0.02771
2988.98353	0.02775
2986.92358	0.02772
2984.86363	0.02768
2982.80369	0.02767
2980.74374	0.02769
2978.68379	0.02771
2976.62384	0.02774
2974.56390	0.02777
2972.50395	0.02777
2970.44400	0.02777
2968.38406	0.02783
2966.32411	0.02789
2964.26416	0.02790
2962.20421	0.02791
2960.14427	0.02794
2958.08432	0.02796
2956.02437	0.02800
2953.96442	0.02806
2951.90448	0.02813
2949.84453	0.02819
2947.78458	0.02821
2945.72463	0.02826
2943.66469	0.02838
2941.60474	0.02847
2939.54479	0.02853
2937.48485	0.02866
2935.42490	0.02883
2933.36495	0.02901
2931.30500	0.02915
2929.24506	0.02923
2927.18511	0.02933
2925.12516	0.02952
2923.06521	0.02969
2921.00527	0.02977
2918.94532	0.02976
2916.88537	0.02966
2914.82543	0.02946
2912.76548	0.02924
2910.70553	0.02900
2908.64558	0.02872
2906.58564	0.02854
2904.52569	0.02850
2902.46574	0.02840
2900.40579	0.02819
2898.34585	0.02804
2896.28590	0.02798
2894.22595	0.02792
2892.16601	0.02781
2890.10606	0.02772
2888.04611	0.02767
2885.98616	0.02760
2883.92622	0.02751
2881.86627	0.02747
2879.80632	0.02747
2877.74637	0.02744
2875.68643	0.02738
2873.62648	0.02733
2871.56653	0.02730
2869.50658	0.02731
2867.44664	0.02730
2865.38669	0.02726
2863.32674	0.02733
2861.26680	0.02744
2859.20685	0.02752
2857.14690	0.02761
2855.08695	0.02774
2853.02701	0.02788
2850.96706	0.02795
2848.90711	0.02784
2846.84716	0.02756
2844.78722	0.02730
2842.72727	0.02712
2840.66732	0.02698
2838.60738	0.02682
2836.54743	0.02666
2834.48748	0.02647
2832.42753	0.02627
2830.36759	0.02614
2828.30764	0.02611
2826.24769	0.02615
2824.18774	0.02615
2822.12780	0.02609
2820.06785	0.02601
2818.00790	0.02596
2815.94796	0.02593
2813.88801	0.02591
2811.82806	0.02586
2809.76811	0.02577
2807.70817	0.02566
2805.64822	0.02559
2803.58827	0.02556
2801.52832	0.02557
2799.46838	0.02562
2797.40843	0.02563
2795.34848	0.02555
2793.28853	0.02543
2791.22859	0.02541
2789.16864	0.02546
2787.10869	0.02541
2785.04875	0.02532
2782.98880	0.02529
2780.92885	0.02529
2778.86890	0.02529
2776.80896	0.02526
2774.74901	0.02521
2772.68906	0.02517
2770.62911	0.02511
2768.56917	0.02503
2766.50922	0.02498
2764.44927	0.02497
2762.38933	0.02492
2760.32938	0.02487
2758.26943	0.02487
2756.20948	0.02489
2754.14954	0.02489
2752.08959	0.02486
2750.02964	0.02484
2747.96969	0.02483
2745.90975	0.02485
2743.84980	0.02485
2741.78985	0.02476
2739.72991	0.02469
2737.66996	0.02468
2735.61001	0.02469
2733.55006	0.02470
2731.49012	0.02471
2729.43017	0.02468
2727.37022	0.02464
2725.31027	0.02459
2723.25033	0.02453
2721.19038	0.02449
2719.13043	0.02447
2717.07048	0.02445
2715.01054	0.02443
2712.95059	0.02444
2710.89064	0.02444
2708.83070	0.02438
2706.77075	0.02432
2704.71080	0.02430
2702.65085	0.02430
2700.59091	0.02430
2698.53096	0.02428
2696.47101	0.02424
2694.41106	0.02417
2692.35112	0.02409
2690.29117	0.02407
2688.23122	0.02410
2686.17128	0.02412
2684.11133	0.02411
2682.05138	0.02407
2679.99143	0.02403
2677.93149	0.02402
2675.87154	0.02400
2673.81159	0.02395
2671.75164	0.02395
2669.69170	0.02404
2667.63175	0.02416
2665.57180	0.02426
2663.51186	0.02436
2661.45191	0.02447
2659.39196	0.02457
2657.33201	0.02463
2655.27207	0.02462
2653.21212	0.02455
2651.15217	0.02447
2649.09222	0.02443
2647.03228	0.02442
2644.97233	0.02438
2642.91238	0.02430
2640.85243	0.02421
2638.79249	0.02413
2636.73254	0.02408
2634.67259	0.02400
2632.61265	0.02389
2630.55270	0.02378
2628.49275	0.02371
2626.43280	0.02366
2624.37286	0.02361
2622.31291	0.02358
2620.25296	0.02346
2618.19301	0.02330
2616.13307	0.02327
2614.07312	0.02326
2612.01317	0.02317
2609.95323	0.02304
2607.89328	0.02292
2605.83333	0.02292
2603.77338	0.02294
2601.71344	0.02285
2599.65349	0.02272
2597.59354	0.02264
2595.53359	0.02257
2593.47365	0.02253
2591.41370	0.02253
2589.35375	0.02252
2587.29381	0.02245
2585.23386	0.02236
2583.17391	0.02229
2581.11396	0.02218
2579.05402	0.02206
2576.99407	0.02206
2574.93412	0.02205
2572.87417	0.02195
2570.81423	0.02190
2568.75428	0.02190
2566.69433	0.02188
2564.63438	0.02184
2562.57444	0.02181
2560.51449	0.02184
2558.45454	0.02184
2556.39460	0.02172
2554.33465	0.02154
2552.27470	0.02148
2550.21475	0.02152
2548.15481	0.02154
2546.09486	0.02151
2544.03491	0.02149
2541.97496	0.02150
2539.91502	0.02143
2537.85507	0.02130
2535.79512	0.02125
2533.73518	0.02124
2531.67523	0.02117
2529.61528	0.02108
2527.55533	0.02107
2525.49539	0.02103
2523.43544	0.02095
2521.37549	0.02097
2519.31554	0.02103
2517.25560	0.02102
2515.19565	0.02095
2513.13570	0.02089
2511.07576	0.02087
2509.01581	0.02091
2506.95586	0.02091
2504.89591	0.02086
2502.83597	0.02083
2500.77602	0.02088
2498.71607	0.02096
2496.65612	0.02100
2494.59618	0.02094
2492.53623	0.02081
2490.47628	0.02067
2488.41633	0.02058
2486.35639	0.02059
2484.29644	0.02065
2482.23649	0.02069
2480.17655	0.02071
2478.11660	0.02064
2476.05665	0.02050
2473.99670	0.02047
2471.93676	0.02056
2469.87681	0.02065
2467.81686	0.02069
2465.75691	0.02070
2463.69697	0.02069
2461.63702	0.02064
2459.57707	0.02064
2457.51713	0.02075
2455.45718	0.02083
2453.39723	0.02082
2451.33728	0.02073
2449.27734	0.02057
2447.21739	0.02051
2445.15744	0.02057
2443.09749	0.02053
2441.03755	0.02041
2438.97760	0.02031
2436.91765	0.02025
2434.85771	0.02019
2432.79776	0.02008
2430.73781	0.01996
2428.67786	0.01989
2426.61792	0.01989
2424.55797	0.01992
2422.49802	0.01991
2420.43807	0.01989
2418.37813	0.01990
2416.31818	0.01989
2414.25823	0.01984
2412.19828	0.01980
2410.13834	0.01975
2408.07839	0.01960
2406.01844	0.01940
2403.95850	0.01930
2401.89855	0.01932
2399.83860	0.01935
2397.77865	0.01935
2395.71871	0.01932
2393.65876	0.01929
2391.59881	0.01928
2389.53886	0.01920
2387.47892	0.01913
2385.41897	0.01913
2383.35902	0.01916
2381.29908	0.01920
2379.23913	0.01924
2377.17918	0.01924
2375.11923	0.01911
2373.05929	0.01887
2370.99934	0.01868
2368.93939	0.01859
2366.87944	0.01857
2364.81950	0.01865
2362.75955	0.01891
2360.69960	0.01912
2358.63966	0.01916
2356.57971	0.01931
2354.51976	0.01961
2352.45981	0.01988
2350.39987	0.01996
2348.33992	0.01985
2346.27997	0.01971
2344.22002	0.01958
2342.16008	0.01942
2340.10013	0.01936
2338.04018	0.01942
2335.98023	0.01940
2333.92029	0.01939
2331.86034	0.01958
2329.80039	0.02018
2327.74045	0.02132
2325.68050	0.02229
2323.62055	0.02223
2321.56060	0.02159
2319.50066	0.02111
2317.44071	0.02087
2315.38076	0.02075
2313.32081	0.02077
2311.26087	0.02081
2309.20092	0.02073
2307.14097	0.02060
2305.08103	0.02050
2303.02108	0.02041
2300.96113	0.02037
2298.90118	0.02038
2296.84124	0.02044
2294.78129	0.02061
2292.72134	0.02089
2290.66139	0.02114
2288.60145	0.02125
2286.54150	0.02116
2284.48155	0.02080
2282.42161	0.02036
2280.36166	0.02009
2278.30171	0.01992
2276.24176	0.01972
2274.18182	0.01952
2272.12187	0.01934
2270.06192	0.01917
2268.00197	0.01908
2265.94203	0.01903
2263.88208	0.01902
2261.82213	0.01916
2259.76218	0.01928
2257.70224	0.01913
2255.64229	0.01879
2253.58234	0.01851
2251.52240	0.01841
2249.46245	0.01845
2247.40250	0.01857
2245.34255	0.01869
2243.28261	0.01870
2241.22266	0.01868
2239.16271	0.01866
2237.10276	0.01846
2235.04282	0.01833
2232.98287	0.01849
2230.92292	0.01863
2228.86298	0.01852
2226.80303	0.01827
2224.74308	0.01807
2222.68313	0.01791
2220.62319	0.01773
2218.56324	0.01756
2216.50329	0.01749
2214.44334	0.01756
2212.38340	0.01782
2210.32345	0.01813
2208.26350	0.01827
2206.20356	0.01812
2204.14361	0.01776
2202.08366	0.01752
2200.02371	0.01759
2197.96377	0.01784
2195.90382	0.01800
2193.84387	0.01802
2191.78392	0.01809
2189.72398	0.01817
2187.66403	0.01809
2185.60408	0.01763
2183.54413	0.01683
2181.48419	0.01639
2179.42424	0.01647
2177.36429	0.01614
2175.30435	0.01552
2173.24440	0.01575
2171.18445	0.01700
2169.12450	0.01838
2167.06456	0.01906
2165.00461	0.01889
2162.94466	0.01756
2160.88471	0.01410
2158.82477	0.01037
2156.76482	0.00979
2154.70487	0.01126
2152.64493	0.01223
2150.58498	0.01252
2148.52503	0.01285
2146.46508	0.01332
2144.40514	0.01359
2142.34519	0.01368
2140.28524	0.01381
2138.22529	0.01374
2136.16535	0.01333
2134.10540	0.01324
2132.04545	0.01369
2129.98551	0.01423
2127.92556	0.01472
2125.86561	0.01513
2123.80566	0.01544
2121.74572	0.01560
2119.68577	0.01572
2117.62582	0.01607
2115.56587	0.01658
2113.50593	0.01688
2111.44598	0.01689
2109.38603	0.01689
2107.32608	0.01695
2105.26614	0.01689
2103.20619	0.01679
2101.14624	0.01681
2099.08630	0.01670
2097.02635	0.01630
2094.96640	0.01597
2092.90645	0.01596
2090.84651	0.01610
2088.78656	0.01633
2086.72661	0.01664
2084.66666	0.01698
2082.60672	0.01716
2080.54677	0.01721
2078.48682	0.01730
2076.42688	0.01725
2074.36693	0.01702
2072.30698	0.01682
2070.24703	0.01667
2068.18709	0.01647
2066.12714	0.01627
2064.06719	0.01624
2062.00724	0.01635
2059.94730	0.01642
2057.88735	0.01635
2055.82740	0.01634
2053.76746	0.01697
2051.70751	0.01767
2049.64756	0.01734
2047.58761	0.01660
2045.52767	0.01603
2043.46772	0.01573
2041.40777	0.01595
2039.34782	0.01628
2037.28788	0.01617
2035.22793	0.01554
2033.16798	0.01476
2031.10803	0.01428
2029.04809	0.01413
2026.98814	0.01392
2024.92819	0.01374
2022.86825	0.01385
2020.80830	0.01400
2018.74835	0.01411
2016.68840	0.01409
2014.62846	0.01398
2012.56851	0.01398
2010.50856	0.01373
2008.44861	0.01317
2006.38867	0.01303
2004.32872	0.01358
2002.26877	0.01428
2000.20883	0.01471
1998.14888	0.01489
1996.08893	0.01495
1994.02898	0.01502
1991.96904	0.01528
1989.90909	0.01578
1987.84914	0.01621
1985.78919	0.01639
1983.72925	0.01689
1981.66930	0.01747
1979.60935	0.01644
1977.54941	0.01428
1975.48946	0.01313
1973.42951	0.01303
1971.36956	0.01334
1969.30962	0.01388
1967.24967	0.01403
1965.18972	0.01356
1963.12977	0.01319
1961.06983	0.01304
1959.00988	0.01296
1956.94993	0.01323
1954.88998	0.01367
1952.83004	0.01397
1950.77009	0.01421
1948.71014	0.01432
1946.65020	0.01419
1944.59025	0.01408
1942.53030	0.01409
1940.47035	0.01404
1938.41041	0.01409
1936.35046	0.01430
1934.29051	0.01445
1932.23056	0.01444
1930.17062	0.01445
1928.11067	0.01460
1926.05072	0.01476
1923.99078	0.01496
1921.93083	0.01519
1919.87088	0.01528
1917.81093	0.01528
1915.75099	0.01529
1913.69104	0.01534
1911.63109	0.01542
1909.57114	0.01545
1907.51120	0.01553
1905.45125	0.01570
1903.39130	0.01574
1901.33136	0.01563
1899.27141	0.01560
1897.21146	0.01571
1895.15151	0.01588
1893.09157	0.01604
1891.03162	0.01620
1888.97167	0.01625
1886.91172	0.01613
1884.85178	0.01603
1882.79183	0.01606
1880.73188	0.01610
1878.67193	0.01615
1876.61199	0.01622
1874.55204	0.01626
1872.49209	0.01632
1870.43215	0.01648
1868.37220	0.01660
1866.31225	0.01647
1864.25230	0.01622
1862.19236	0.01608
1860.13241	0.01610
1858.07246	0.01612
1856.01251	0.01596
1853.95257	0.01581
1851.89262	0.01581
1849.83267	0.01582
1847.77273	0.01584
1845.71278	0.01594
1843.65283	0.01604
1841.59288	0.01590
1839.53294	0.01570
1837.47299	0.01568
1835.41304	0.01570
1833.35309	0.01567
1831.29315	0.01579
1829.23320	0.01596
1827.17325	0.01597
1825.11331	0.01594
1823.05336	0.01585
1820.99341	0.01561
1818.93346	0.01533
1816.87352	0.01521
1814.81357	0.01534
1812.75362	0.01565
1810.69367	0.01594
1808.63373	0.01602
1806.57378	0.01602
1804.51383	0.01613
1802.45388	0.01639
1800.39394	0.01659
1798.33399	0.01656
1796.27404	0.01652
1794.21410	0.01667
1792.15415	0.01688
1790.09420	0.01679
1788.03425	0.01660
1785.97431	0.01656
1783.91436	0.01657
1781.85441	0.01663
1779.79446	0.01668
1777.73452	0.01670
1775.67457	0.01685
1773.61462	0.01716
1771.55468	0.01736
1769.49473	0.01728
1767.43478	0.01707
1765.37483	0.01689
1763.31489	0.01694
1761.25494	0.01715
1759.19499	0.01730
1757.13504	0.01741
1755.07510	0.01741
1753.01515	0.01754
1750.95520	0.01809
1748.89526	0.01861
1746.83531	0.01864
1744.77536	0.01852
1742.71541	0.01849
1740.65547	0.01859
1738.59552	0.01869
1736.53557	0.01885
1734.47562	0.01937
1732.41568	0.01978
1730.35573	0.01963
1728.29578	0.01940
1726.23583	0.01936
1724.17589	0.01957
1722.11594	0.01982
1720.05599	0.02019
1717.99605	0.02096
1715.93610	0.02146
1713.87615	0.02121
1711.81620	0.02095
1709.75626	0.02097
1707.69631	0.02123
1705.63636	0.02156
1703.57641	0.02171
1701.51647	0.02197
1699.45652	0.02271
1697.39657	0.02315
1695.33663	0.02300
1693.27668	0.02271
1691.21673	0.02279
1689.15678	0.02322
1687.09684	0.02362
1685.03689	0.02432
1682.97694	0.02508
1680.91699	0.02502
1678.85705	0.02480
1676.79710	0.02485
1674.73715	0.02522
1672.67721	0.02557
1670.61726	0.02594
1668.55731	0.02628
1666.49736	0.02630
1664.43742	0.02639
1662.37747	0.02674
1660.31752	0.02693
1658.25757	0.02703
1656.19763	0.02731
1654.13768	0.02805
1652.07773	0.02880
1650.01778	0.02879
1647.95784	0.02889
1645.89789	0.02906
1643.83794	0.02883
1641.77800	0.02863
1639.71805	0.02873
1637.65810	0.02920
1635.59815	0.02976
1633.53821	0.02965
1631.47826	0.02933
1629.41831	0.02935
1627.35836	0.02958
1625.29842	0.02977
1623.23847	0.02989
1621.17852	0.02982
1619.11858	0.02975
1617.05863	0.02992
1614.99868	0.02988
1612.93873	0.02958
1610.87879	0.02945
1608.81884	0.02947
1606.75889	0.02941
1604.69894	0.02930
1602.63900	0.02926
1600.57905	0.02923
1598.51910	0.02915
1596.45916	0.02908
1594.39921	0.02902
1592.33926	0.02889
1590.27931	0.02874
1588.21937	0.02858
1586.15942	0.02843
1584.09947	0.02831
1582.03952	0.02824
1579.97958	0.02820
1577.91963	0.02828
1575.85968	0.02836
1573.79973	0.02812
1571.73979	0.02794
1569.67984	0.02800
1567.61989	0.02786
1565.55995	0.02755
1563.50000	0.02735
1561.44005	0.02742
1559.38010	0.02811
1557.32016	0.02832
1555.26021	0.02765
1553.20026	0.02716
1551.14031	0.02691
1549.08037	0.02671
1547.02042	0.02665
1544.96047	0.02696
1542.90053	0.02744
1540.84058	0.02768
1538.78063	0.02712
1536.72068	0.02642
1534.66074	0.02620
1532.60079	0.02615
1530.54084	0.02592
1528.48089	0.02586
1526.42095	0.02599
1524.36100	0.02602
1522.30105	0.02612
1520.24111	0.02614
1518.18116	0.02594
1516.12121	0.02563
1514.06126	0.02523
1512.00132	0.02505
1509.94137	0.02530
1507.88142	0.02572
1505.82147	0.02521
1503.76153	0.02426
1501.70158	0.02381
1499.64163	0.02373
1497.58168	0.02373
1495.52174	0.02343
1493.46179	0.02309
1491.40184	0.02320
1489.34190	0.02348
1487.28195	0.02313
1485.22200	0.02252
1483.16205	0.02218
1481.10211	0.02211
1479.04216	0.02217
1476.98221	0.02243
1474.92226	0.02294
1472.86232	0.02340
1470.80237	0.02336
1468.74242	0.02313
1466.68248	0.02319
1464.62253	0.02341
1462.56258	0.02343
1460.50263	0.02359
1458.44269	0.02419
1456.38274	0.02457
1454.32279	0.02412
1452.26284	0.02368
1450.20290	0.02355
1448.14295	0.02357
1446.08300	0.02344
1444.02306	0.02322
1441.96311	0.02314
1439.90316	0.02327
1437.84321	0.02362
1435.78327	0.02390
1433.72332	0.02380
1431.66337	0.02373
1429.60342	0.02381
1427.54348	0.02385
1425.48353	0.02397
1423.42358	0.02418
1421.36363	0.02437
1419.30369	0.02470
1417.24374	0.02479
1415.18379	0.02445
1413.12385	0.02421
1411.06390	0.02415
1409.00395	0.02416
1406.94400	0.02425
1404.88406	0.02434
1402.82411	0.02429
1400.76416	0.02431
1398.70421	0.02453
1396.64427	0.02467
1394.58432	0.02460
1392.52437	0.02433
1390.46443	0.02416
1388.40448	0.02425
1386.34453	0.02428
1384.28458	0.02410
1382.22464	0.02403
1380.16469	0.02416
1378.10474	0.02432
1376.04479	0.02449
1373.98485	0.02455
1371.92490	0.02437
1369.86495	0.02419
1367.80501	0.02409
1365.74506	0.02407
1363.68511	0.02419
1361.62516	0.02415
1359.56522	0.02384
1357.50527	0.02362
1355.44532	0.02351
1353.38537	0.02338
1351.32543	0.02328
1349.26548	0.02321
1347.20553	0.02313
1345.14558	0.02307
1343.08564	0.02313
1341.02569	0.02337
1338.96574	0.02353
1336.90580	0.02336
1334.84585	0.02305
1332.78590	0.02281
1330.72595	0.02268
1328.66601	0.02265
1326.60606	0.02267
1324.54611	0.02270
1322.48616	0.02275
1320.42622	0.02283
1318.36627	0.02291
1316.30632	0.02294
1314.24638	0.02293
1312.18643	0.02286
1310.12648	0.02276
1308.06653	0.02271
1306.00659	0.02272
1303.94664	0.02278
1301.88669	0.02283
1299.82674	0.02287
1297.76680	0.02292
1295.70685	0.02298
1293.64690	0.02307
1291.58696	0.02322
1289.52701	0.02340
1287.46706	0.02354
1285.40711	0.02367
1283.34717	0.02384
1281.28722	0.02402
1279.22727	0.02415
1277.16732	0.02427
1275.10738	0.02444
1273.04743	0.02465
1270.98748	0.02486
1268.92753	0.02500
1266.86759	0.02508
1264.80764	0.02516
1262.74769	0.02529
1260.68775	0.02549
1258.62780	0.02568
1256.56785	0.02582
1254.50790	0.02602
1252.44796	0.02632
1250.38801	0.02669
1248.32806	0.02705
1246.26811	0.02737
1244.20817	0.02766
1242.14822	0.02796
1240.08827	0.02830
1238.02833	0.02867
1235.96838	0.02906
1233.90843	0.02943
1231.84848	0.02980
1229.78854	0.03021
1227.72859	0.03068
1225.66864	0.03121
1223.60869	0.03185
1221.54875	0.03265
1219.48880	0.03360
1217.42885	0.03459
1215.36891	0.03562
1213.30896	0.03670
1211.24901	0.03779
1209.18906	0.03887
1207.12912	0.03996
1205.06917	0.04103
1203.00922	0.04209
1200.94927	0.04316
1198.88933	0.04422
1196.82938	0.04524
1194.76943	0.04627
1192.70949	0.04733
1190.64954	0.04844
1188.58959	0.04958
1186.52964	0.05077
1184.46970	0.05201
1182.40975	0.05332
1180.34980	0.05476
1178.28985	0.05636
1176.22991	0.05810
1174.16996	0.06005
1172.11001	0.06221
1170.05006	0.06452
1167.99012	0.06693
1165.93017	0.06930
1163.87022	0.07120
1161.81028	0.07197
1159.75033	0.07144
1157.69038	0.07040
1155.63043	0.06986
1153.57049	0.07018
1151.51054	0.07112
1149.45059	0.07237
1147.39064	0.07378
1145.33070	0.07527
1143.27075	0.07686
1141.21080	0.07849
1139.15086	0.08013
1137.09091	0.08180
1135.03096	0.08357
1132.97101	0.08545
1130.91107	0.08741
1128.85112	0.08935
1126.79117	0.09126
1124.73122	0.09320
1122.67128	0.09519
1120.61133	0.09720
1118.55138	0.09924
1116.49144	0.10132
1114.43149	0.10339
1112.37154	0.10544
1110.31159	0.10750
1108.25165	0.10959
1106.19170	0.11178
1104.13175	0.11404
1102.07180	0.11632
1100.01186	0.11863
1097.95191	0.12097
1095.89196	0.12325
1093.83201	0.12541
1091.77207	0.12747
1089.71212	0.12943
1087.65217	0.13124
1085.59223	0.13281
1083.53228	0.13413
1081.47233	0.13528
1079.41238	0.13628
1077.35244	0.13703
1075.29249	0.13754
1073.23254	0.13800
1071.17259	0.13856
1069.11265	0.13931
1067.05270	0.14030
1064.99275	0.14150
1062.93281	0.14285
1060.87286	0.14407
1058.81291	0.14499
1056.75296	0.14569
1054.69302	0.14628
1052.63307	0.14677
1050.57312	0.14718
1048.51317	0.14758
1046.45323	0.14800
1044.39328	0.14844
1042.33333	0.14896
1040.27339	0.14955
1038.21344	0.15011
1036.15349	0.15052
1034.09354	0.15076
1032.03360	0.15086
1029.97365	0.15083
1027.91370	0.15063
1025.85375	0.15029
1023.79381	0.14992
1021.73386	0.14955
1019.67391	0.14918
1017.61396	0.14888
1015.55402	0.14866
1013.49407	0.14842
1011.43412	0.14823
1009.37418	0.14814
1007.31423	0.14797
1005.25428	0.14754
1003.19433	0.14687
1001.13439	0.14614
999.07444	0.14535
997.01449	0.14453
994.95454	0.14365
992.89460	0.14273
990.83465	0.14183
988.77470	0.14092
986.71476	0.13990
984.65481	0.13876
982.59486	0.13762
980.53491	0.13651
978.47497	0.13534
976.41502	0.13404
974.35507	0.13267
972.29512	0.13134
970.23518	0.13007
968.17523	0.12879
966.11528	0.12748
964.05534	0.12612
961.99539	0.12470
959.93544	0.12330
957.87549	0.12197
955.81555	0.12066
953.75560	0.11930
951.69565	0.11798
949.63570	0.11676
947.57576	0.11556
945.51581	0.11440
943.45586	0.11330
941.39591	0.11223
939.33597	0.11117
937.27602	0.11002
935.21607	0.10879
933.15613	0.10763
931.09618	0.10651
929.03623	0.10535
926.97628	0.10418
924.91634	0.10306
922.85639	0.10203
920.79644	0.10112
918.73649	0.10031
916.67655	0.09952
914.61660	0.09865
912.55665	0.09762
910.49671	0.09639
908.43676	0.09496
906.37681	0.09342
904.31686	0.09187
902.25692	0.09028
900.19697	0.08868
898.13702	0.08705
896.07707	0.08544
894.01713	0.08392
891.95718	0.08247
889.89723	0.08103
887.83729	0.07960
885.77734	0.07818
883.71739	0.07676
881.65744	0.07536
879.59750	0.07399
877.53755	0.07265
875.47760	0.07132
873.41765	0.06993
871.35771	0.06844
869.29776	0.06695
867.23781	0.06559
865.17786	0.06430
863.11792	0.06296
861.05797	0.06163
858.99802	0.06033
856.93808	0.05911
854.87813	0.05797
852.81818	0.05679
850.75823	0.05562
848.69829	0.05455
846.63834	0.05356
844.57839	0.05265
842.51844	0.05182
840.45850	0.05111
838.39855	0.05062
836.33860	0.05032
834.27866	0.05004
832.21871	0.04973
830.15876	0.04944
828.09881	0.04925
826.03887	0.04923
823.97892	0.04942
821.91897	0.04984
819.85902	0.05051
817.79908	0.05156
815.73913	0.05315
813.67918	0.05540
811.61924	0.05859
809.55929	0.06319
807.49934	0.06943
805.43939	0.07692
803.37945	0.08496
801.31950	0.09276
799.25955	0.09929
797.19960	0.10353
795.13966	0.10524
793.07971	0.10535
791.01976	0.10508
788.95981	0.10527
786.89987	0.10648
784.83992	0.10896
782.77997	0.11259
780.72003	0.11663
778.66008	0.11970
776.60013	0.12075
774.54018	0.11976
772.48024	0.11743
770.42029	0.11455
768.36034	0.11159
766.30039	0.10881
764.24045	0.10621
762.18050	0.10371
760.12055	0.10128
758.06061	0.09891
756.00066	0.09664
753.94071	0.09456
751.88076	0.09267
749.82082	0.09091
747.76087	0.08922
745.70092	0.08770
743.64097	0.08629
741.58103	0.08478
739.52108	0.08326
737.46113	0.08192
735.40119	0.08075
733.34124	0.07974
731.28129	0.07886
729.22134	0.07795
727.16140	0.07704
725.10145	0.07627
723.04150	0.07556
720.98155	0.07474
718.92161	0.07383
716.86166	0.07288
714.80171	0.07199
712.74176	0.07133
710.68182	0.07093
708.62187	0.07072
706.56192	0.07083
704.50198	0.07159
702.44203	0.07347
700.38208	0.07687
698.32213	0.08179
696.26219	0.08688
694.20224	0.08947
692.14229	0.08850
690.08234	0.08543
688.02240	0.08200
685.96245	0.07880
683.90250	0.07607
681.84256	0.07389
679.78261	0.07197
677.72266	0.07015
675.66271	0.06860
673.60277	0.06734
671.54282	0.06626
669.48287	0.06538
667.42292	0.06463
665.36298	0.06366
663.30303	0.06270
661.24308	0.06199
659.18314	0.06154
657.12319	0.06126
655.06324	0.06113
653.00329	0.06104
650.94335	0.06091
648.88340	0.06076
646.82345	0.06049
644.76350	0.05996
642.70356	0.05924
640.64361	0.05849
638.58366	0.05771
636.52371	0.05686
634.46377	0.05603
632.40382	0.05540
630.34387	0.05501
628.28393	0.05478
626.22398	0.05460
624.16403	0.05438
622.10408	0.05415
620.04414	0.05410
617.98419	0.05428
615.92424	0.05455
613.86429	0.05481
611.80435	0.05503
609.74440	0.05533
607.68445	0.05575
605.62451	0.05617
603.56456	0.05646
601.50461	0.05662
599.44466	0.05677
597.38472	0.05699
595.32477	0.05728
593.26482	0.05771
591.20487	0.05804
589.14493	0.05809
587.08498	0.05819
585.02503	0.05850
582.96509	0.05887
580.90514	0.05921
578.84519	0.05945
576.78524	0.05965
574.72530	0.05982
572.66535	0.06005
570.60540	0.06044
568.54545	0.06095
566.48551	0.06145
564.42556	0.06182
562.36561	0.06210
560.30566	0.06253
558.24572	0.06310
556.18577	0.06376
554.12582	0.06472
552.06588	0.06614
550.00593	0.06800
547.94598	0.07043
545.88603	0.07350
543.82609	0.07698
541.76614	0.08067
539.70619	0.08450
537.64624	0.08834
535.58630	0.09218
533.52635	0.09576
531.46640	0.09885
529.40646	0.10147
527.34651	0.10377
525.28656	0.10575
523.22661	0.10711
521.16667	0.10794
519.10672	0.10860
517.04677	0.10892
514.98682	0.10850
512.92688	0.10735
510.86693	0.10584
508.80698	0.10470
506.74704	0.10455
504.68709	0.10551
502.62714	0.10773
500.56719	0.11102
498.50725	0.11452
496.44730	0.11791
494.38735	0.12144
492.32740	0.12530
490.26746	0.12901
488.20751	0.13228
486.14756	0.13593
484.08761	0.14044
482.02767	0.14527
479.96772	0.14996
477.90777	0.15472
475.84783	0.15992
473.78788	0.16580
471.72793	0.17202
469.66798	0.17745
467.60804	0.18203
465.54809	0.18617
463.48814	0.18970
461.42819	0.19271
459.36825	0.19532
457.30830	0.19732
455.24835	0.19782
453.18841	0.19741
451.12846	0.19732
449.06851	0.19743
447.00856	0.19702
444.94862	0.19589
442.88867	0.19443
440.82872	0.19245
438.76877	0.19028
436.70883	0.18900
434.64888	0.18831
432.58893	0.18697
430.52899	0.18527
428.46904	0.18374
426.40909	0.18205
424.34914	0.18019
422.28920	0.17828
420.22925	0.17592
418.16930	0.17201
416.10935	0.16697
414.04941	0.16107
411.98946	0.15369
409.92951	0.14537
407.86956	0.13731
405.80962	0.13214
403.74967	0.13287
401.68972	0.14045
399.62978	0.15470
