3996.29776	0.03595
3994.23781	0.03590
3992.17786	0.03591
3990.11791	0.03604
3988.05797	0.03616
3985.99802	0.03606
3983.93807	0.03592
3981.87813	0.03590
3979.81818	0.03595
3977.75823	0.03603
3975.69828	0.03612
3973.63834	0.03615
3971.57839	0.03602
3969.51844	0.03596
3967.45849	0.03604
3965.39855	0.03604
3963.33860	0.03590
3961.27865	0.03582
3959.21870	0.03578
3957.15876	0.03577
3955.09881	0.03581
3953.03886	0.03577
3950.97892	0.03571
3948.91897	0.03583
3946.85902	0.03596
3944.79907	0.03600
3942.73913	0.03618
3940.67918	0.03621
3938.61923	0.03596
3936.55928	0.03577
3934.49934	0.03577
3932.43939	0.03596
3930.37944	0.03615
3928.31950	0.03597
3926.25955	0.03572
3924.19960	0.03577
3922.13965	0.03571
3920.07971	0.03551
3918.01976	0.03576
3915.95981	0.03615
3913.89986	0.03601
3911.83992	0.03566
3909.77997	0.03548
3907.72002	0.03527
3905.66008	0.03518
3903.60013	0.03563
3901.54018	0.03625
3899.48023	0.03658
3897.42029	0.03647
3895.36034	0.03595
3893.30039	0.03556
3891.24044	0.03571
3889.18050	0.03562
3887.12055	0.03532
3885.06060	0.03557
3883.00065	0.03564
3880.94071	0.03559
3878.88076	0.03579
3876.82081	0.03549
3874.76087	0.03519
3872.70092	0.03519
3870.64097	0.03544
3868.58102	0.03588
3866.52108	0.03579
3864.46113	0.03575
3862.40118	0.03602
3860.34123	0.03583
3858.28129	0.03515
3856.22134	0.03446
3854.16139	0.03503
3852.10145	0.03675
3850.04150	0.03668
3847.98155	0.03573
3845.92160	0.03504
3843.86166	0.03485
3841.80171	0.03497
3839.74176	0.03523
3837.68181	0.03579
3835.62187	0.03603
3833.56192	0.03581
3831.50197	0.03567
3829.44203	0.03553
3827.38208	0.03537
3825.32213	0.03515
3823.26218	0.03481
3821.20224	0.03523
3819.14229	0.03572
3817.08234	0.03550
3815.02239	0.03567
3812.96245	0.03557
3810.90250	0.03488
3808.84255	0.03442
3806.78260	0.03482
3804.72266	0.03509
3802.66271	0.03508
3800.60276	0.03569
3798.54282	0.03585
3796.48287	0.03557
3794.42292	0.03539
3792.36297	0.03510
3790.30303	0.03486
3788.24308	0.03477
3786.18313	0.03482
3784.12318	0.03490
3782.06324	0.03472
3780.00329	0.03469
3777.94334	0.03493
3775.88340	0.03482
3773.82345	0.03443
3771.76350	0.03430
3769.70355	0.03473
3767.64361	0.03510
3765.58366	0.03518
3763.52371	0.03504
3761.46376	0.03457
3759.40382	0.03444
3757.34387	0.03469
3755.28392	0.03448
3753.22398	0.03413
3751.16403	0.03474
3749.10408	0.03556
3747.04413	0.03505
3744.98419	0.03485
3742.92424	0.03568
3740.86429	0.03548
3738.80434	0.03457
3736.74440	0.03438
3734.68445	0.03525
3732.62450	0.03580
3730.56455	0.03547
3728.50461	0.03489
3726.44466	0.03469
3724.38471	0.03483
3722.32477	0.03489
3720.26482	0.03479
3718.20487	0.03452
3716.14492	0.03410
3714.08498	0.03375
3712.02503	0.03416
3709.96508	0.03507
3707.90513	0.03516
3705.84519	0.03474
3703.78524	0.03451
3701.72529	0.03472
3699.66535	0.03489
3697.60540	0.03478
3695.54545	0.03460
3693.48550	0.03432
3691.42556	0.03422
3689.36561	0.03496
3687.30566	0.03573
3685.24571	0.03543
3683.18577	0.03475
3681.12582	0.03429
3679.06587	0.03395
3677.00593	0.03403
3674.94598	0.03499
3672.88603	0.03521
3670.82608	0.03513
3668.76614	0.03566
3666.70619	0.03536
3664.64624	0.03463
3662.58629	0.03439
3660.52635	0.03434
3658.46640	0.03417
3656.40645	0.03431
3654.34651	0.03431
3652.28656	0.03371
3650.22661	0.03384
3648.16666	0.03532
3646.10672	0.03582
3644.04677	0.03525
3641.98682	0.03476
3639.92687	0.03457
3637.86693	0.03445
3635.80698	0.03443
3633.74703	0.03440
3631.68708	0.03416
3629.62714	0.03457
3627.56719	0.03581
3625.50724	0.03583
3623.44730	0.03513
3621.38735	0.03477
3619.32740	0.03510
3617.26745	0.03548
3615.20751	0.03533
3613.14756	0.03514
3611.08761	0.03514
3609.02766	0.03541
3606.96772	0.03572
3604.90777	0.03548
3602.84782	0.03503
3600.78788	0.03489
3598.72793	0.03494
3596.66798	0.03498
3594.60803	0.03508
3592.54809	0.03498
3590.48814	0.03458
3588.42819	0.03471
3586.36824	0.03549
3584.30830	0.03557
3582.24835	0.03515
3580.18840	0.03495
3578.12846	0.03493
3576.06851	0.03497
3574.00856	0.03500
3571.94861	0.03483
3569.88867	0.03460
3567.82872	0.03505
3565.76877	0.03588
3563.70882	0.03587
3561.64888	0.03548
3559.58893	0.03529
3557.52898	0.03515
3555.46903	0.03502
3553.40909	0.03513
3551.34914	0.03529
3549.28919	0.03523
3547.22925	0.03530
3545.16930	0.03557
3543.10935	0.03558
3541.04940	0.03540
3538.98946	0.03534
3536.92951	0.03542
3534.86956	0.03546
3532.80961	0.03540
3530.74967	0.03536
3528.68972	0.03544
3526.62977	0.03562
3524.56983	0.03580
3522.50988	0.03591
3520.44993	0.03582
3518.38998	0.03564
3516.33004	0.03559
3514.27009	0.03551
3512.21014	0.03542
3510.15019	0.03550
3508.09025	0.03559
3506.03030	0.03554
3503.97035	0.03559
3501.91041	0.03578
3499.85046	0.03579
3497.79051	0.03564
3495.73056	0.03556
3493.67062	0.03565
3491.61067	0.03580
3489.55072	0.03590
3487.49077	0.03596
3485.43083	0.03590
3483.37088	0.03584
3481.31093	0.03593
3479.25098	0.03595
3477.19104	0.03585
3475.13109	0.03586
3473.07114	0.03594
3471.01120	0.03596
3468.95125	0.03595
3466.89130	0.03595
3464.83135	0.03593
3462.77141	0.03590
3460.71146	0.03595
3458.65151	0.03602
3456.59156	0.03602
3454.53162	0.03599
3452.47167	0.03596
3450.41172	0.03595
3448.35178	0.03606
3446.29183	0.03622
3444.23188	0.03615
3442.17193	0.03605
3440.11199	0.03606
3438.05204	0.03605
3435.99209	0.03603
3433.93214	0.03601
3431.87220	0.03597
3429.81225	0.03598
3427.75230	0.03605
3425.69236	0.03609
3423.63241	0.03608
3421.57246	0.03612
3419.51251	0.03623
3417.45257	0.03626
3415.39262	0.03614
3413.33267	0.03602
3411.27272	0.03602
3409.21278	0.03606
3407.15283	0.03610
3405.09288	0.03620
3403.03293	0.03631
3400.97299	0.03631
3398.91304	0.03624
3396.85309	0.03616
3394.79315	0.03608
3392.73320	0.03607
3390.67325	0.03616
3388.61330	0.03616
3386.55336	0.03609
3384.49341	0.03609
3382.43346	0.03613
3380.37351	0.03614
3378.31357	0.03612
3376.25362	0.03610
3374.19367	0.03613
3372.13373	0.03618
3370.07378	0.03616
3368.01383	0.03609
3365.95388	0.03610
3363.89394	0.03619
3361.83399	0.03621
3359.77404	0.03617
3357.71409	0.03612
3355.65415	0.03607
3353.59420	0.03603
3351.53425	0.03604
3349.47431	0.03606
3347.41436	0.03605
3345.35441	0.03598
3343.29446	0.03593
3341.23452	0.03591
3339.17457	0.03593
3337.11462	0.03597
3335.05467	0.03597
3332.99473	0.03594
3330.93478	0.03595
3328.87483	0.03594
3326.81488	0.03590
3324.75494	0.03588
3322.69499	0.03587
3320.63504	0.03588
3318.57510	0.03587
3316.51515	0.03586
3314.45520	0.03587
3312.39525	0.03591
3310.33531	0.03591
3308.27536	0.03587
3306.21541	0.03585
3304.15546	0.03581
3302.09552	0.03575
3300.03557	0.03572
3297.97562	0.03571
3295.91568	0.03566
3293.85573	0.03560
3291.79578	0.03561
3289.73583	0.03563
3287.67589	0.03560
3285.61594	0.03552
3283.55599	0.03545
3281.49604	0.03551
3279.43610	0.03565
3277.37615	0.03570
3275.31620	0.03569
3273.25626	0.03568
3271.19631	0.03564
3269.13636	0.03562
3267.07641	0.03560
3265.01647	0.03557
3262.95652	0.03552
3260.89657	0.03547
3258.83662	0.03544
3256.77668	0.03534
3254.71673	0.03520
3252.65678	0.03519
3250.59683	0.03526
3248.53689	0.03528
3246.47694	0.03519
3244.41699	0.03510
3242.35705	0.03508
3240.29710	0.03504
3238.23715	0.03497
3236.17720	0.03488
3234.11726	0.03484
3232.05731	0.03488
3229.99736	0.03495
3227.93741	0.03497
3225.87747	0.03495
3223.81752	0.03493
3221.75757	0.03499
3219.69763	0.03507
3217.63768	0.03508
3215.57773	0.03498
3213.51778	0.03487
3211.45784	0.03481
3209.39789	0.03473
3207.33794	0.03464
3205.27799	0.03459
3203.21805	0.03462
3201.15810	0.03463
3199.09815	0.03459
3197.03821	0.03454
3194.97826	0.03449
3192.91831	0.03442
3190.85836	0.03436
3188.79842	0.03434
3186.73847	0.03436
3184.67852	0.03441
3182.61857	0.03449
3180.55863	0.03458
3178.49868	0.03458
3176.43873	0.03447
3174.37878	0.03434
3172.31884	0.03431
3170.25889	0.03433
3168.19894	0.03431
3166.13900	0.03428
3164.07905	0.03426
3162.01910	0.03421
3159.95915	0.03414
3157.89921	0.03409
3155.83926	0.03404
3153.77931	0.03405
3151.71936	0.03409
3149.65942	0.03407
3147.59947	0.03394
3145.53952	0.03381
3143.47958	0.03378
3141.41963	0.03381
3139.35968	0.03380
3137.29973	0.03376
3135.23979	0.03375
3133.17984	0.03381
3131.11989	0.03387
3129.05994	0.03382
3127.00000	0.03376
3124.94005	0.03375
3122.88010	0.03374
3120.82016	0.03373
3118.76021	0.03375
3116.70026	0.03373
3114.64031	0.03368
3112.58037	0.03358
3110.52042	0.03352
3108.46047	0.03354
3106.40052	0.03353
3104.34058	0.03351
3102.28063	0.03356
3100.22068	0.03359
3098.16073	0.03353
3096.10079	0.03345
3094.04084	0.03342
3091.98089	0.03346
3089.92095	0.03348
3087.86100	0.03346
3085.80105	0.03341
3083.74110	0.03335
3081.68116	0.03330
3079.62121	0.03330
3077.56126	0.03330
3075.50131	0.03327
3073.44137	0.03322
3071.38142	0.03316
3069.32147	0.03308
3067.26153	0.03299
3065.20158	0.03294
3063.14163	0.03297
3061.08168	0.03302
3059.02174	0.03301
3056.96179	0.03294
3054.90184	0.03286
3052.84189	0.03283
3050.78195	0.03289
3048.72200	0.03291
3046.66205	0.03280
3044.60211	0.03272
3042.54216	0.03273
3040.48221	0.03272
3038.42226	0.03272
3036.36232	0.03274
3034.30237	0.03276
3032.24242	0.03277
3030.18247	0.03278
3028.12253	0.03278
3026.06258	0.03276
3024.00263	0.03272
3021.94268	0.03267
3019.88274	0.03264
3017.82279	0.03260
3015.76284	0.03253
3013.70290	0.03248
3011.64295	0.03249
3009.58300	0.03253
3007.52305	0.03252
3005.46311	0.03246
3003.40316	0.03239
3001.34321	0.03231
2999.28326	0.03231
2997.22332	0.03241
2995.16337	0.03244
2993.10342	0.03235
2991.04348	0.03226
2988.98353	0.03218
2986.92358	0.03217
2984.86363	0.03221
2982.80369	0.03223
2980.74374	0.03223
2978.68379	0.03222
2976.62384	0.03222
2974.56390	0.03220
2972.50395	0.03212
2970.44400	0.03200
2968.38406	0.03188
2966.32411	0.03182
2964.26416	0.03182
2962.20421	0.03186
2960.14427	0.03189
2958.08432	0.03191
2956.02437	0.03195
2953.96442	0.03198
2951.90448	0.03198
2949.84453	0.03199
2947.78458	0.03198
2945.72463	0.03198
2943.66469	0.03203
2941.60474	0.03206
2939.54479	0.03206
2937.48485	0.03210
2935.42490	0.03215
2933.36495	0.03215
2931.30500	0.03208
2929.24506	0.03201
2927.18511	0.03205
2925.12516	0.03217
2923.06521	0.03227
2921.00527	0.03232
2918.94532	0.03233
2916.88537	0.03230
2914.82543	0.03226
2912.76548	0.03223
2910.70553	0.03217
2908.64558	0.03207
2906.58564	0.03202
2904.52569	0.03201
2902.46574	0.03196
2900.40579	0.03185
2898.34585	0.03179
2896.28590	0.03184
2894.22595	0.03189
2892.16601	0.03189
2890.10606	0.03185
2888.04611	0.03181
2885.98616	0.03177
2883.92622	0.03168
2881.86627	0.03160
2879.80632	0.03160
2877.74637	0.03157
2875.68643	0.03149
2873.62648	0.03144
2871.56653	0.03143
2869.50658	0.03146
2867.44664	0.03151
2865.38669	0.03153
2863.32674	0.03152
2861.26680	0.03148
2859.20685	0.03144
2857.14690	0.03147
2855.08695	0.03157
2853.02701	0.03163
2850.96706	0.03165
2848.90711	0.03162
2846.84716	0.03154
2844.78722	0.03148
2842.72727	0.03144
2840.66732	0.03138
2838.60738	0.03130
2836.54743	0.03124
2834.48748	0.03116
2832.42753	0.03109
2830.36759	0.03108
2828.30764	0.03114
2826.24769	0.03120
2824.18774	0.03116
2822.12780	0.03108
2820.06785	0.03108
2818.00790	0.03110
2815.94796	0.03106
2813.88801	0.03099
2811.82806	0.03096
2809.76811	0.03093
2807.70817	0.03090
2805.64822	0.03087
2803.58827	0.03087
2801.52832	0.03086
2799.46838	0.03084
2797.40843	0.03081
2795.34848	0.03076
2793.28853	0.03070
2791.22859	0.03068
2789.16864	0.03066
2787.10869	0.03062
2785.04875	0.03059
2782.98880	0.03060
2780.92885	0.03065
2778.86890	0.03068
2776.80896	0.03067
2774.74901	0.03066
2772.68906	0.03065
2770.62911	0.03057
2768.56917	0.03046
2766.50922	0.03040
2764.44927	0.03036
2762.38933	0.03031
2760.32938	0.03031
2758.26943	0.03037
2756.20948	0.03038
2754.14954	0.03033
2752.08959	0.03030
2750.02964	0.03031
2747.96969	0.03029
2745.90975	0.03025
2743.84980	0.03020
2741.78985	0.03016
2739.72991	0.03014
2737.66996	0.03017
2735.61001	0.03022
2733.55006	0.03027
2731.49012	0.03027
2729.43017	0.03020
2727.37022	0.03015
2725.31027	0.03015
2723.25033	0.03013
2721.19038	0.03011
2719.13043	0.03010
2717.07048	0.03010
2715.01054	0.03011
2712.95059	0.03014
2710.89064	0.03014
2708.83070	0.03010
2706.77075	0.03008
2704.71080	0.03013
2702.65085	0.03014
2700.59091	0.03003
2698.53096	0.02990
2696.47101	0.02984
2694.41106	0.02982
2692.35112	0.02977
2690.29117	0.02975
2688.23122	0.02976
2686.17128	0.02979
2684.11133	0.02982
2682.05138	0.02986
2679.99143	0.02989
2677.93149	0.02987
2675.87154	0.02981
2673.81159	0.02975
2671.75164	0.02975
2669.69170	0.02979
2667.63175	0.02990
2665.57180	0.03006
2663.51186	0.03017
2661.45191	0.03024
2659.39196	0.03033
2657.33201	0.03041
2655.27207	0.03041
2653.21212	0.03039
2651.15217	0.03038
2649.09222	0.03039
2647.03228	0.03035
2644.97233	0.03027
2642.91238	0.03017
2640.85243	0.03001
2638.79249	0.02985
2636.73254	0.02979
2634.67259	0.02977
2632.61265	0.02971
2630.55270	0.02963
2628.49275	0.02959
2626.43280	0.02953
2624.37286	0.02945
2622.31291	0.02942
2620.25296	0.02934
2618.19301	0.02923
2616.13307	0.02916
2614.07312	0.02908
2612.01317	0.02900
2609.95323	0.02896
2607.89328	0.02891
2605.83333	0.02882
2603.77338	0.02875
2601.71344	0.02868
2599.65349	0.02858
2597.59354	0.02851
2595.53359	0.02847
2593.47365	0.02844
2591.41370	0.02847
2589.35375	0.02848
2587.29381	0.02842
2585.23386	0.02831
2583.17391	0.02819
2581.11396	0.02808
2579.05402	0.02798
2576.99407	0.02797
2574.93412	0.02801
2572.87417	0.02794
2570.81423	0.02784
2568.75428	0.02774
2566.69433	0.02765
2564.63438	0.02764
2562.57444	0.02767
2560.51449	0.02767
2558.45454	0.02768
2556.39460	0.02765
2554.33465	0.02754
2552.27470	0.02743
2550.21475	0.02738
2548.15481	0.02733
2546.09486	0.02732
2544.03491	0.02733
2541.97496	0.02729
2539.91502	0.02722
2537.85507	0.02716
2535.79512	0.02712
2533.73518	0.02704
2531.67523	0.02695
2529.61528	0.02693
2527.55533	0.02695
2525.49539	0.02696
2523.43544	0.02695
2521.37549	0.02692
2519.31554	0.02687
2517.25560	0.02683
2515.19565	0.02682
2513.13570	0.02684
2511.07576	0.02684
2509.01581	0.02679
2506.95586	0.02670
2504.89591	0.02663
2502.83597	0.02662
2500.77602	0.02664
2498.71607	0.02666
2496.65612	0.02671
2494.59618	0.02674
2492.53623	0.02670
2490.47628	0.02659
2488.41633	0.02650
2486.35639	0.02653
2484.29644	0.02661
2482.23649	0.02665
2480.17655	0.02660
2478.11660	0.02649
2476.05665	0.02643
2473.99670	0.02642
2471.93676	0.02641
2469.87681	0.02643
2467.81686	0.02650
2465.75691	0.02650
2463.69697	0.02644
2461.63702	0.02646
2459.57707	0.02661
2457.51713	0.02673
2455.45718	0.02669
2453.39723	0.02657
2451.33728	0.02648
2449.27734	0.02639
2447.21739	0.02635
2445.15744	0.02633
2443.09749	0.02627
2441.03755	0.02617
2438.97760	0.02611
2436.91765	0.02612
2434.85771	0.02609
2432.79776	0.02599
2430.73781	0.02590
2428.67786	0.02583
2426.61792	0.02572
2424.55797	0.02563
2422.49802	0.02563
2420.43807	0.02564
2418.37813	0.02564
2416.31818	0.02561
2414.25823	0.02556
2412.19828	0.02555
2410.13834	0.02548
2408.07839	0.02529
2406.01844	0.02507
2403.95850	0.02497
2401.89855	0.02502
2399.83860	0.02510
2397.77865	0.02509
2395.71871	0.02500
2393.65876	0.02490
2391.59881	0.02486
2389.53886	0.02483
2387.47892	0.02482
2385.41897	0.02488
2383.35902	0.02489
2381.29908	0.02476
2379.23913	0.02467
2377.17918	0.02471
2375.11923	0.02463
2373.05929	0.02439
2370.99934	0.02428
2368.93939	0.02432
2366.87944	0.02435
2364.81950	0.02441
2362.75955	0.02459
2360.69960	0.02482
2358.63966	0.02499
2356.57971	0.02516
2354.51976	0.02546
2352.45981	0.02579
2350.39987	0.02582
2348.33992	0.02552
2346.27997	0.02524
2344.22002	0.02516
2342.16008	0.02511
2340.10013	0.02511
2338.04018	0.02523
2335.98023	0.02530
2333.92029	0.02530
2331.86034	0.02539
2329.80039	0.02593
2327.74045	0.02712
2325.68050	0.02814
2323.62055	0.02814
2321.56060	0.02753
2319.50066	0.02701
2317.44071	0.02667
2315.38076	0.02654
2313.32081	0.02652
2311.26087	0.02645
2309.20092	0.02634
2307.14097	0.02622
2305.08103	0.02609
2303.02108	0.02601
2300.96113	0.02603
2298.90118	0.02607
2296.84124	0.02615
2294.78129	0.02633
2292.72134	0.02657
2290.66139	0.02677
2288.60145	0.02681
2286.54150	0.02665
2284.48155	0.02637
2282.42161	0.02607
2280.36166	0.02579
2278.30171	0.02560
2276.24176	0.02543
2274.18182	0.02524
2272.12187	0.02502
2270.06192	0.02482
2268.00197	0.02470
2265.94203	0.02455
2263.88208	0.02447
2261.82213	0.02458
2259.76218	0.02467
2257.70224	0.02455
2255.64229	0.02428
2253.58234	0.02408
2251.52240	0.02399
2249.46245	0.02404
2247.40250	0.02421
2245.34255	0.02428
2243.28261	0.02418
2241.22266	0.02400
2239.16271	0.02377
2237.10276	0.02358
2235.04282	0.02361
2232.98287	0.02385
2230.92292	0.02404
2228.86298	0.02394
2226.80303	0.02369
2224.74308	0.02353
2222.68313	0.02349
2220.62319	0.02343
2218.56324	0.02321
2216.50329	0.02287
2214.44334	0.02267
2212.38340	0.02277
2210.32345	0.02300
2208.26350	0.02313
2206.20356	0.02309
2204.14361	0.02287
2202.08366	0.02265
2200.02371	0.02266
2197.96377	0.02280
2195.90382	0.02283
2193.84387	0.02276
2191.78392	0.02293
2189.72398	0.02321
2187.66403	0.02319
2185.60408	0.02256
2183.54413	0.02162
2181.48419	0.02128
2179.42424	0.02134
2177.36429	0.02094
2175.30435	0.02056
2173.24440	0.02102
2171.18445	0.02198
2169.12450	0.02288
2167.06456	0.02345
2165.00461	0.02351
2162.94466	0.02238
2160.88471	0.01882
2158.82477	0.01479
2156.76482	0.01396
2154.70487	0.01554
2152.64493	0.01700
2150.58498	0.01748
2148.52503	0.01760
2146.46508	0.01779
2144.40514	0.01789
2142.34519	0.01807
2140.28524	0.01846
2138.22529	0.01862
2136.16535	0.01825
2134.10540	0.01805
2132.04545	0.01850
2129.98551	0.01916
2127.92556	0.01976
2125.86561	0.02029
2123.80566	0.02064
2121.74572	0.02085
2119.68577	0.02107
2117.62582	0.02152
2115.56587	0.02205
2113.50593	0.02223
2111.44598	0.02209
2109.38603	0.02203
2107.32608	0.02215
2105.26614	0.02216
2103.20619	0.02215
2101.14624	0.02227
2099.08630	0.02219
2097.02635	0.02164
2094.96640	0.02108
2092.90645	0.02107
2090.84651	0.02145
2088.78656	0.02188
2086.72661	0.02227
2084.66666	0.02249
2082.60672	0.02253
2080.54677	0.02261
2078.48682	0.02270
2076.42688	0.02255
2074.36693	0.02217
2072.30698	0.02185
2070.24703	0.02180
2068.18709	0.02185
2066.12714	0.02192
2064.06719	0.02200
2062.00724	0.02204
2059.94730	0.02207
2057.88735	0.02197
2055.82740	0.02180
2053.76746	0.02233
2051.70751	0.02325
2049.64756	0.02315
2047.58761	0.02232
2045.52767	0.02160
2043.46772	0.02116
2041.40777	0.02134
2039.34782	0.02181
2037.28788	0.02178
2035.22793	0.02127
2033.16798	0.02069
2031.10803	0.02025
2029.04809	0.02000
2026.98814	0.01982
2024.92819	0.01958
2022.86825	0.01930
2020.80830	0.01913
2018.74835	0.01926
2016.68840	0.01956
2014.62846	0.01986
2012.56851	0.02009
2010.50856	0.01991
2008.44861	0.01906
2006.38867	0.01839
2004.32872	0.01872
2002.26877	0.01954
2000.20883	0.02028
1998.14888	0.02079
1996.08893	0.02096
1994.02898	0.02104
1991.96904	0.02120
1989.90909	0.02126
1987.84914	0.02129
1985.78919	0.02146
1983.72925	0.02213
1981.66930	0.02305
1979.60935	0.02244
1977.54941	0.02017
1975.48946	0.01860
1973.42951	0.01852
1971.36956	0.01913
1969.30962	0.01958
1967.24967	0.01947
1965.18972	0.01931
1963.12977	0.01936
1961.06983	0.01911
1959.00988	0.01884
1956.94993	0.01905
1954.88998	0.01948
1952.83004	0.01977
1950.77009	0.01984
1948.71014	0.01979
1946.65020	0.01970
1944.59025	0.01967
1942.53030	0.01979
1940.47035	0.01985
1938.41041	0.01988
1936.35046	0.02000
1934.29051	0.02008
1932.23056	0.02005
1930.17062	0.01999
1928.11067	0.02000
1926.05072	0.02004
1923.99078	0.02025
1921.93083	0.02069
1919.87088	0.02098
1917.81093	0.02103
1915.75099	0.02100
1913.69104	0.02098
1911.63109	0.02100
1909.57114	0.02104
1907.51120	0.02116
1905.45125	0.02130
1903.39130	0.02141
1901.33136	0.02157
1899.27141	0.02174
1897.21146	0.02188
1895.15151	0.02200
1893.09157	0.02212
1891.03162	0.02227
1888.97167	0.02245
1886.91172	0.02244
1884.85178	0.02228
1882.79183	0.02221
1880.73188	0.02223
1878.67193	0.02230
1876.61199	0.02240
1874.55204	0.02243
1872.49209	0.02238
1870.43215	0.02233
1868.37220	0.02236
1866.31225	0.02235
1864.25230	0.02228
1862.19236	0.02222
1860.13241	0.02214
1858.07246	0.02209
1856.01251	0.02201
1853.95257	0.02187
1851.89262	0.02173
1849.83267	0.02160
1847.77273	0.02145
1845.71278	0.02138
1843.65283	0.02148
1841.59288	0.02145
1839.53294	0.02133
1837.47299	0.02131
1835.41304	0.02129
1833.35309	0.02116
1831.29315	0.02120
1829.23320	0.02144
1827.17325	0.02150
1825.11331	0.02149
1823.05336	0.02147
1820.99341	0.02127
1818.93346	0.02099
1816.87352	0.02090
1814.81357	0.02103
1812.75362	0.02124
1810.69367	0.02147
1808.63373	0.02163
1806.57378	0.02174
1804.51383	0.02184
1802.45388	0.02194
1800.39394	0.02203
1798.33399	0.02208
1796.27404	0.02208
1794.21410	0.02207
1792.15415	0.02214
1790.09420	0.02216
1788.03425	0.02206
1785.97431	0.02199
1783.91436	0.02196
1781.85441	0.02196
1779.79446	0.02198
1777.73452	0.02191
1775.67457	0.02182
1773.61462	0.02194
1771.55468	0.02220
1769.49473	0.02225
1767.43478	0.02207
1765.37483	0.02180
1763.31489	0.02167
1761.25494	0.02180
1759.19499	0.02193
1757.13504	0.02199
1755.07510	0.02195
1753.01515	0.02183
1750.95520	0.02194
1748.89526	0.02222
1746.83531	0.02230
1744.77536	0.02222
1742.71541	0.02214
1740.65547	0.02217
1738.59552	0.02218
1736.53557	0.02209
1734.47562	0.02230
1732.41568	0.02271
1730.35573	0.02267
1728.29578	0.02252
1726.23583	0.02249
1724.17589	0.02257
1722.11594	0.02259
1720.05599	0.02260
1717.99605	0.02303
1715.93610	0.02356
1713.87615	0.02352
1711.81620	0.02334
1709.75626	0.02326
1707.69631	0.02333
1705.63636	0.02353
1703.57641	0.02359
1701.51647	0.02366
1699.45652	0.02414
1697.39657	0.02448
1695.33663	0.02450
1693.27668	0.02438
1691.21673	0.02435
1689.15678	0.02452
1687.09684	0.02463
1685.03689	0.02495
1682.97694	0.02554
1680.91699	0.02548
1678.85705	0.02520
1676.79710	0.02513
1674.73715	0.02531
1672.67721	0.02541
1670.61726	0.02549
1668.55731	0.02568
1666.49736	0.02563
1664.43742	0.02558
1662.37747	0.02580
1660.31752	0.02592
1658.25757	0.02582
1656.19763	0.02572
1654.13768	0.02602
1652.07773	0.02661
1650.01778	0.02650
1647.95784	0.02645
1645.89789	0.02677
1643.83794	0.02677
1641.77800	0.02654
1639.71805	0.02642
1637.65810	0.02655
1635.59815	0.02703
1633.53821	0.02718
1631.47826	0.02699
1629.41831	0.02698
1627.35836	0.02718
1625.29842	0.02736
1623.23847	0.02750
1621.17852	0.02752
1619.11858	0.02744
1617.05863	0.02761
1614.99868	0.02779
1612.93873	0.02765
1610.87879	0.02753
1608.81884	0.02755
1606.75889	0.02751
1604.69894	0.02735
1602.63900	0.02721
1600.57905	0.02714
1598.51910	0.02705
1596.45916	0.02693
1594.39921	0.02684
1592.33926	0.02674
1590.27931	0.02662
1588.21937	0.02649
1586.15942	0.02637
1584.09947	0.02631
1582.03952	0.02626
1579.97958	0.02612
1577.91963	0.02602
1575.85968	0.02607
1573.79973	0.02593
1571.73979	0.02571
1569.67984	0.02569
1567.61989	0.02567
1565.55995	0.02551
1563.50000	0.02531
1561.44005	0.02513
1559.38010	0.02542
1557.32016	0.02573
1555.26021	0.02536
1553.20026	0.02504
1551.14031	0.02489
1549.08037	0.02481
1547.02042	0.02473
1544.96047	0.02477
1542.90053	0.02495
1540.84058	0.02521
1538.78063	0.02521
1536.72068	0.02483
1534.66074	0.02470
1532.60079	0.02488
1530.54084	0.02488
1528.48089	0.02479
1526.42095	0.02481
1524.36100	0.02474
1522.30105	0.02471
1520.24111	0.02478
1518.18116	0.02477
1516.12121	0.02469
1514.06126	0.02450
1512.00132	0.02434
1509.94137	0.02439
1507.88142	0.02471
1505.82147	0.02480
1503.76153	0.02430
1501.70158	0.02388
1499.64163	0.02372
1497.58168	0.02377
1495.52174	0.02374
1493.46179	0.02351
1491.40184	0.02343
1489.34190	0.02358
1487.28195	0.02353
1485.22200	0.02326
1483.16205	0.02306
1481.10211	0.02297
1479.04216	0.02293
1476.98221	0.02294
1474.92226	0.02305
1472.86232	0.02327
1470.80237	0.02333
1468.74242	0.02314
1466.68248	0.02307
1464.62253	0.02319
1462.56258	0.02315
1460.50263	0.02302
1458.44269	0.02319
1456.38274	0.02355
1454.32279	0.02337
1452.26284	0.02306
1450.20290	0.02295
1448.14295	0.02299
1446.08300	0.02296
1444.02306	0.02286
1441.96311	0.02280
1439.90316	0.02280
1437.84321	0.02293
1435.78327	0.02316
1433.72332	0.02315
1431.66337	0.02310
1429.60342	0.02317
1427.54348	0.02316
1425.48353	0.02311
1423.42358	0.02316
1421.36363	0.02323
1419.30369	0.02344
1417.24374	0.02358
1415.18379	0.02339
1413.12385	0.02320
1411.06390	0.02315
1409.00395	0.02312
1406.94400	0.02313
1404.88406	0.02319
1402.82411	0.02317
1400.76416	0.02317
1398.70421	0.02329
1396.64427	0.02341
1394.58432	0.02343
1392.52437	0.02328
1390.46443	0.02311
1388.40448	0.02310
1386.34453	0.02318
1384.28458	0.02314
1382.22464	0.02309
1380.16469	0.02312
1378.10474	0.02316
1376.04479	0.02321
1373.98485	0.02330
1371.92490	0.02331
1369.86495	0.02329
1367.80501	0.02328
1365.74506	0.02323
1363.68511	0.02326
1361.62516	0.02331
1359.56522	0.02322
1357.50527	0.02309
1355.44532	0.02302
1353.38537	0.02300
1351.32543	0.02297
1349.26548	0.02294
1347.20553	0.02293
1345.14558	0.02294
1343.08564	0.02299
1341.02569	0.02311
1338.96574	0.02322
1336.90580	0.02319
1334.84585	0.02307
1332.78590	0.02296
1330.72595	0.02290
1328.66601	0.02290
1326.60606	0.02293
1324.54611	0.02297
1322.48616	0.02300
1320.42622	0.02308
1318.36627	0.02319
1316.30632	0.02325
1314.24638	0.02329
1312.18643	0.02331
1310.12648	0.02330
1308.06653	0.02332
1306.00659	0.02338
1303.94664	0.02347
1301.88669	0.02359
1299.82674	0.02375
1297.76680	0.02393
1295.70685	0.02410
1293.64690	0.02427
1291.58696	0.02447
1289.52701	0.02471
1287.46706	0.02491
1285.40711	0.02511
1283.34717	0.02534
1281.28722	0.02556
1279.22727	0.02576
1277.16732	0.02592
1275.10738	0.02607
1273.04743	0.02623
1270.98748	0.02640
1268.92753	0.02656
1266.86759	0.02672
1264.80764	0.02689
1262.74769	0.02708
1260.68775	0.02729
1258.62780	0.02749
1256.56785	0.02774
1254.50790	0.02805
1252.44796	0.02844
1250.38801	0.02886
1248.32806	0.02932
1246.26811	0.02981
1244.20817	0.03032
1242.14822	0.03085
1240.08827	0.03142
1238.02833	0.03202
1235.96838	0.03261
1233.90843	0.03323
1231.84848	0.03394
1229.78854	0.03479
1227.72859	0.03581
1225.66864	0.03707
1223.60869	0.03863
1221.54875	0.04050
1219.48880	0.04258
1217.42885	0.04480
1215.36891	0.04708
1213.30896	0.04938
1211.24901	0.05164
1209.18906	0.05383
1207.12912	0.05596
1205.06917	0.05796
1203.00922	0.05980
1200.94927	0.06151
1198.88933	0.06310
1196.82938	0.06453
1194.76943	0.06587
1192.70949	0.06723
1190.64954	0.06855
1188.58959	0.06976
1186.52964	0.07094
1184.46970	0.07217
1182.40975	0.07352
1180.34980	0.07506
1178.28985	0.07680
1176.22991	0.07878
1174.16996	0.08109
1172.11001	0.08379
1170.05006	0.08690
1167.99012	0.09037
1165.93017	0.09395
1163.87022	0.09696
1161.81028	0.09822
1159.75033	0.09721
1157.69038	0.09499
1155.63043	0.09327
1153.57049	0.09287
1151.51054	0.09364
1149.45059	0.09512
1147.39064	0.09696
1145.33070	0.09905
1143.27075	0.10134
1141.21080	0.10376
1139.15086	0.10628
1137.09091	0.10895
1135.03096	0.11180
1132.97101	0.11480
1130.91107	0.11798
1128.85112	0.12130
1126.79117	0.12473
1124.73122	0.12828
1122.67128	0.13194
1120.61133	0.13574
1118.55138	0.13963
1116.49144	0.14355
1114.43149	0.14756
1112.37154	0.15163
1110.31159	0.15582
1108.25165	0.16015
1106.19170	0.16465
1104.13175	0.16931
1102.07180	0.17412
1100.01186	0.17907
1097.95191	0.18414
1095.89196	0.18915
1093.83201	0.19407
1091.77207	0.19894
1089.71212	0.20364
1087.65217	0.20798
1085.59223	0.21186
1083.53228	0.21511
1081.47233	0.21765
1079.41238	0.21940
1077.35244	0.22022
1075.29249	0.22011
1073.23254	0.21921
1071.17259	0.21794
1069.11265	0.21666
1067.05270	0.21548
1064.99275	0.21438
1062.93281	0.21306
1060.87286	0.21107
1058.81291	0.20839
1056.75296	0.20546
1054.69302	0.20249
1052.63307	0.19949
1050.57312	0.19651
1048.51317	0.19364
1046.45323	0.19105
1044.39328	0.18888
1042.33333	0.18703
1040.27339	0.18531
1038.21344	0.18356
1036.15349	0.18170
1034.09354	0.17977
1032.03360	0.17785
1029.97365	0.17604
1027.91370	0.17432
1025.85375	0.17266
1023.79381	0.17103
1021.73386	0.16938
1019.67391	0.16777
1017.61396	0.16626
1015.55402	0.16481
1013.49407	0.16338
1011.43412	0.16199
1009.37418	0.16064
1007.31423	0.15928
1005.25428	0.15786
1003.19433	0.15633
1001.13439	0.15472
999.07444	0.15313
997.01449	0.15151
994.95454	0.14986
992.89460	0.14824
990.83465	0.14670
988.77470	0.14516
986.71476	0.14357
984.65481	0.14192
982.59486	0.14022
980.53491	0.13854
978.47497	0.13691
976.41502	0.13526
974.35507	0.13352
972.29512	0.13178
970.23518	0.13012
968.17523	0.12851
966.11528	0.12684
964.05534	0.12510
961.99539	0.12335
959.93544	0.12163
957.87549	0.11991
955.81555	0.11822
953.75560	0.11660
951.69565	0.11501
949.63570	0.11344
947.57576	0.11194
945.51581	0.11047
943.45586	0.10896
941.39591	0.10746
939.33597	0.10593
937.27602	0.10428
935.21607	0.10259
933.15613	0.10099
931.09618	0.09942
929.03623	0.09782
926.97628	0.09623
924.91634	0.09469
922.85639	0.09321
920.79644	0.09176
918.73649	0.09027
916.67655	0.08877
914.61660	0.08733
912.55665	0.08589
910.49671	0.08435
908.43676	0.08270
906.37681	0.08102
904.31686	0.07935
902.25692	0.07767
900.19697	0.07602
898.13702	0.07438
896.07707	0.07273
894.01713	0.07110
891.95718	0.06952
889.89723	0.06800
887.83729	0.06648
885.77734	0.06495
883.71739	0.06341
881.65744	0.06189
879.59750	0.06041
877.53755	0.05897
875.47760	0.05756
873.41765	0.05620
871.35771	0.05486
869.29776	0.05353
867.23781	0.05226
865.17786	0.05105
863.11792	0.04985
861.05797	0.04865
858.99802	0.04743
856.93808	0.04630
854.87813	0.04535
852.81818	0.04453
850.75823	0.04378
848.69829	0.04311
846.63834	0.04250
844.57839	0.04193
842.51844	0.04145
840.45850	0.04112
838.39855	0.04101
836.33860	0.04101
834.27866	0.04105
832.21871	0.04114
830.15876	0.04137
828.09881	0.04178
826.03887	0.04247
823.97892	0.04344
821.91897	0.04467
819.85902	0.04623
817.79908	0.04846
815.73913	0.05153
813.67918	0.05560
811.61924	0.06132
809.55929	0.06949
807.49934	0.08043
805.43939	0.09366
803.37945	0.10796
801.31950	0.12163
799.25955	0.13244
797.19960	0.13823
795.13966	0.13868
793.07971	0.13575
791.01976	0.13220
788.95981	0.13031
786.89987	0.13159
784.83992	0.13647
782.77997	0.14398
780.72003	0.15156
778.66008	0.15598
776.60013	0.15542
774.54018	0.15049
772.48024	0.14343
770.42029	0.13614
768.36034	0.12933
766.30039	0.12306
764.24045	0.11737
762.18050	0.11221
760.12055	0.10747
758.06061	0.10309
756.00066	0.09904
753.94071	0.09529
751.88076	0.09184
749.82082	0.08870
747.76087	0.08584
745.70092	0.08320
743.64097	0.08068
741.58103	0.07824
739.52108	0.07597
737.46113	0.07389
735.40119	0.07192
733.34124	0.07009
731.28129	0.06853
729.22134	0.06715
727.16140	0.06578
725.10145	0.06445
723.04150	0.06331
720.98155	0.06232
718.92161	0.06143
716.86166	0.06076
714.80171	0.06037
712.74176	0.06022
710.68182	0.06042
708.62187	0.06115
706.56192	0.06253
704.50198	0.06504
702.44203	0.06938
700.38208	0.07608
698.32213	0.08482
696.26219	0.09275
694.20224	0.09541
692.14229	0.09177
690.08234	0.08501
688.02240	0.07815
685.96245	0.07223
683.90250	0.06749
681.84256	0.06383
679.78261	0.06077
677.72266	0.05814
675.66271	0.05591
673.60277	0.05400
671.54282	0.05245
669.48287	0.05113
667.42292	0.04964
665.36298	0.04840
663.30303	0.04746
661.24308	0.04654
659.18314	0.04564
657.12319	0.04484
655.06324	0.04423
653.00329	0.04380
650.94335	0.04345
648.88340	0.04306
646.82345	0.04251
644.76350	0.04185
642.70356	0.04114
640.64361	0.04043
638.58366	0.03982
636.52371	0.03925
634.46377	0.03863
632.40382	0.03809
630.34387	0.03768
628.28393	0.03731
626.22398	0.03704
624.16403	0.03690
622.10408	0.03668
620.04414	0.03642
617.98419	0.03629
615.92424	0.03624
613.86429	0.03621
611.80435	0.03613
609.74440	0.03603
607.68445	0.03593
605.62451	0.03579
603.56456	0.03563
601.50461	0.03547
599.44466	0.03541
597.38472	0.03554
595.32477	0.03572
593.26482	0.03580
591.20487	0.03567
589.14493	0.03545
587.08498	0.03544
585.02503	0.03553
582.96509	0.03547
580.90514	0.03529
578.84519	0.03520
576.78524	0.03523
574.72530	0.03513
572.66535	0.03482
570.60540	0.03463
568.54545	0.03473
566.48551	0.03496
564.42556	0.03514
562.36561	0.03535
560.30566	0.03578
558.24572	0.03632
556.18577	0.03687
554.12582	0.03779
552.06588	0.03925
550.00593	0.04130
547.94598	0.04404
545.88603	0.04752
543.82609	0.05174
541.76614	0.05673
539.70619	0.06245
537.64624	0.06863
535.58630	0.07506
533.52635	0.08150
531.46640	0.08760
529.40646	0.09329
527.34651	0.09867
525.28656	0.10337
523.22661	0.10689
521.16667	0.10937
519.10672	0.11096
517.04677	0.11142
514.98682	0.11076
512.92688	0.10912
510.86693	0.10649
508.80698	0.10343
506.74704	0.10135
504.68709	0.10158
502.62714	0.10444
500.56719	0.10905
498.50725	0.11425
496.44730	0.11980
494.38735	0.12572
492.32740	0.13225
490.26746	0.13900
488.20751	0.14510
486.14756	0.15089
484.08761	0.15724
482.02767	0.16434
479.96772	0.17164
477.90777	0.17874
475.84783	0.18611
473.78788	0.19436
471.72793	0.20320
469.66798	0.21135
467.60804	0.21900
465.54809	0.22641
463.48814	0.23271
461.42819	0.23757
459.36825	0.24100
457.30830	0.24282
455.24835	0.24172
453.18841	0.23787
451.12846	0.23257
449.06851	0.22665
447.00856	0.22049
444.94862	0.21475
442.88867	0.20943
440.82872	0.20408
438.76877	0.19925
436.70883	0.19511
434.64888	0.19104
432.58893	0.18675
430.52899	0.18244
428.46904	0.17804
426.40909	0.17347
424.34914	0.16901
422.28920	0.16492
420.22925	0.16046
418.16930	0.15396
416.10935	0.14654
414.04941	0.13832
411.98946	0.12874
409.92951	0.11964
407.86956	0.11345
405.80962	0.11245
403.74967	0.11853
401.68972	0.13309
399.62978	0.15741
