3996.29776	0.02602
3994.23781	0.02592
3992.17786	0.02583
3990.11791	0.02588
3988.05797	0.02596
3985.99802	0.02594
3983.93807	0.02587
3981.87813	0.02590
3979.81818	0.02596
3977.75823	0.02594
3975.69828	0.02589
3973.63834	0.02583
3971.57839	0.02574
3969.51844	0.02571
3967.45849	0.02580
3965.39855	0.02585
3963.33860	0.02583
3961.27865	0.02580
3959.21870	0.02574
3957.15876	0.02565
3955.09881	0.02559
3953.03886	0.02553
3950.97892	0.02551
3948.91897	0.02564
3946.85902	0.02578
3944.79907	0.02584
3942.73913	0.02598
3940.67918	0.02601
3938.61923	0.02584
3936.55928	0.02572
3934.49934	0.02576
3932.43939	0.02588
3930.37944	0.02586
3928.31950	0.02562
3926.25955	0.02546
3924.19960	0.02553
3922.13965	0.02552
3920.07971	0.02547
3918.01976	0.02564
3915.95981	0.02586
3913.89986	0.02582
3911.83992	0.02565
3909.77997	0.02548
3907.72002	0.02533
3905.66008	0.02532
3903.60013	0.02553
3901.54018	0.02584
3899.48023	0.02609
3897.42029	0.02601
3895.36034	0.02565
3893.30039	0.02547
3891.24044	0.02555
3889.18050	0.02541
3887.12055	0.02517
3885.06060	0.02530
3883.00065	0.02537
3880.94071	0.02543
3878.88076	0.02551
3876.82081	0.02531
3874.76087	0.02519
3872.70092	0.02526
3870.64097	0.02552
3868.58102	0.02581
3866.52108	0.02569
3864.46113	0.02567
3862.40118	0.02576
3860.34123	0.02554
3858.28129	0.02512
3856.22134	0.02473
3854.16139	0.02508
3852.10145	0.02605
3850.04150	0.02597
3847.98155	0.02546
3845.92160	0.02510
3843.86166	0.02496
3841.80171	0.02494
3839.74176	0.02506
3837.68181	0.02539
3835.62187	0.02549
3833.56192	0.02537
3831.50197	0.02527
3829.44203	0.02511
3827.38208	0.02499
3825.32213	0.02488
3823.26218	0.02471
3821.20224	0.02492
3819.14229	0.02516
3817.08234	0.02517
3815.02239	0.02536
3812.96245	0.02523
3810.90250	0.02478
3808.84255	0.02457
3806.78260	0.02480
3804.72266	0.02487
3802.66271	0.02492
3800.60276	0.02535
3798.54282	0.02536
3796.48287	0.02517
3794.42292	0.02504
3792.36297	0.02482
3790.30303	0.02463
3788.24308	0.02456
3786.18313	0.02470
3784.12318	0.02487
3782.06324	0.02476
3780.00329	0.02468
3777.94334	0.02480
3775.88340	0.02479
3773.82345	0.02463
3771.76350	0.02457
3769.70355	0.02483
3767.64361	0.02503
3765.58366	0.02502
3763.52371	0.02486
3761.46376	0.02450
3759.40382	0.02433
3757.34387	0.02443
3755.28392	0.02441
3753.22398	0.02434
3751.16403	0.02475
3749.10408	0.02523
3747.04413	0.02505
3744.98419	0.02503
3742.92424	0.02528
3740.86429	0.02491
3738.80434	0.02432
3736.74440	0.02423
3734.68445	0.02472
3732.62450	0.02499
3730.56455	0.02479
3728.50461	0.02452
3726.44466	0.02444
3724.38471	0.02442
3722.32477	0.02432
3720.26482	0.02432
3718.20487	0.02433
3716.14492	0.02418
3714.08498	0.02405
3712.02503	0.02439
3709.96508	0.02484
3707.90513	0.02466
3705.84519	0.02426
3703.78524	0.02410
3701.72529	0.02433
3699.66535	0.02452
3697.60540	0.02447
3695.54545	0.02432
3693.48550	0.02409
3691.42556	0.02393
3689.36561	0.02422
3687.30566	0.02458
3685.24571	0.02440
3683.18577	0.02407
3681.12582	0.02392
3679.06587	0.02385
3677.00593	0.02401
3674.94598	0.02450
3672.88603	0.02443
3670.82608	0.02439
3668.76614	0.02477
3666.70619	0.02452
3664.64624	0.02399
3662.58629	0.02383
3660.52635	0.02388
3658.46640	0.02383
3656.40645	0.02392
3654.34651	0.02392
3652.28656	0.02365
3650.22661	0.02382
3648.16666	0.02463
3646.10672	0.02482
3644.04677	0.02445
3641.98682	0.02408
3639.92687	0.02390
3637.86693	0.02393
3635.80698	0.02398
3633.74703	0.02386
3631.68708	0.02368
3629.62714	0.02408
3627.56719	0.02481
3625.50724	0.02465
3623.44730	0.02420
3621.38735	0.02399
3619.32740	0.02412
3617.26745	0.02427
3615.20751	0.02422
3613.14756	0.02421
3611.08761	0.02428
3609.02766	0.02441
3606.96772	0.02449
3604.90777	0.02427
3602.84782	0.02403
3600.78788	0.02402
3598.72793	0.02404
3596.66798	0.02405
3594.60803	0.02417
3592.54809	0.02417
3590.48814	0.02392
3588.42819	0.02390
3586.36824	0.02425
3584.30830	0.02429
3582.24835	0.02412
3580.18840	0.02402
3578.12846	0.02397
3576.06851	0.02398
3574.00856	0.02404
3571.94861	0.02395
3569.88867	0.02379
3567.82872	0.02403
3565.76877	0.02440
3563.70882	0.02429
3561.64888	0.02410
3559.58893	0.02414
3557.52898	0.02419
3555.46903	0.02413
3553.40909	0.02413
3551.34914	0.02415
3549.28919	0.02411
3547.22925	0.02418
3545.16930	0.02434
3543.10935	0.02434
3541.04940	0.02427
3538.98946	0.02435
3536.92951	0.02451
3534.86956	0.02455
3532.80961	0.02447
3530.74967	0.02433
3528.68972	0.02423
3526.62977	0.02424
3524.56983	0.02435
3522.50988	0.02455
3520.44993	0.02465
3518.38998	0.02458
3516.33004	0.02447
3514.27009	0.02435
3512.21014	0.02427
3510.15019	0.02432
3508.09025	0.02439
3506.03030	0.02435
3503.97035	0.02439
3501.91041	0.02459
3499.85046	0.02467
3497.79051	0.02452
3495.73056	0.02438
3493.67062	0.02441
3491.61067	0.02447
3489.55072	0.02450
3487.49077	0.02455
3485.43083	0.02457
3483.37088	0.02458
3481.31093	0.02465
3479.25098	0.02462
3477.19104	0.02452
3475.13109	0.02454
3473.07114	0.02462
3471.01120	0.02464
3468.95125	0.02463
3466.89130	0.02464
3464.83135	0.02462
3462.77141	0.02456
3460.71146	0.02449
3458.65151	0.02450
3456.59156	0.02457
3454.53162	0.02463
3452.47167	0.02464
3450.41172	0.02460
3448.35178	0.02463
3446.29183	0.02468
3444.23188	0.02458
3442.17193	0.02444
3440.11199	0.02444
3438.05204	0.02446
3435.99209	0.02443
3433.93214	0.02443
3431.87220	0.02445
3429.81225	0.02447
3427.75230	0.02452
3425.69236	0.02455
3423.63241	0.02454
3421.57246	0.02453
3419.51251	0.02459
3417.45257	0.02465
3415.39262	0.02460
3413.33267	0.02450
3411.27272	0.02449
3409.21278	0.02450
3407.15283	0.02451
3405.09288	0.02454
3403.03293	0.02455
3400.97299	0.02453
3398.91304	0.02449
3396.85309	0.02449
3394.79315	0.02445
3392.73320	0.02438
3390.67325	0.02437
3388.61330	0.02441
3386.55336	0.02446
3384.49341	0.02451
3382.43346	0.02451
3380.37351	0.02444
3378.31357	0.02433
3376.25362	0.02427
3374.19367	0.02428
3372.13373	0.02432
3370.07378	0.02436
3368.01383	0.02441
3365.95388	0.02445
3363.89394	0.02447
3361.83399	0.02445
3359.77404	0.02439
3357.71409	0.02434
3355.65415	0.02433
3353.59420	0.02432
3351.53425	0.02430
3349.47431	0.02429
3347.41436	0.02431
3345.35441	0.02430
3343.29446	0.02423
3341.23452	0.02421
3339.17457	0.02426
3337.11462	0.02433
3335.05467	0.02431
3332.99473	0.02425
3330.93478	0.02425
3328.87483	0.02425
3326.81488	0.02422
3324.75494	0.02418
3322.69499	0.02414
3320.63504	0.02411
3318.57510	0.02409
3316.51515	0.02409
3314.45520	0.02412
3312.39525	0.02409
3310.33531	0.02402
3308.27536	0.02399
3306.21541	0.02399
3304.15546	0.02394
3302.09552	0.02388
3300.03557	0.02393
3297.97562	0.02399
3295.91568	0.02393
3293.85573	0.02381
3291.79578	0.02381
3289.73583	0.02390
3287.67589	0.02397
3285.61594	0.02400
3283.55599	0.02399
3281.49604	0.02395
3279.43610	0.02393
3277.37615	0.02398
3275.31620	0.02401
3273.25626	0.02396
3271.19631	0.02391
3269.13636	0.02392
3267.07641	0.02391
3265.01647	0.02387
3262.95652	0.02375
3260.89657	0.02359
3258.83662	0.02349
3256.77668	0.02346
3254.71673	0.02344
3252.65678	0.02347
3250.59683	0.02354
3248.53689	0.02355
3246.47694	0.02353
3244.41699	0.02355
3242.35705	0.02356
3240.29710	0.02344
3238.23715	0.02333
3236.17720	0.02329
3234.11726	0.02332
3232.05731	0.02344
3229.99736	0.02354
3227.93741	0.02355
3225.87747	0.02353
3223.81752	0.02346
3221.75757	0.02339
3219.69763	0.02339
3217.63768	0.02337
3215.57773	0.02334
3213.51778	0.02331
3211.45784	0.02328
3209.39789	0.02325
3207.33794	0.02318
3205.27799	0.02312
3203.21805	0.02311
3201.15810	0.02313
3199.09815	0.02313
3197.03821	0.02306
3194.97826	0.02296
3192.91831	0.02288
3190.85836	0.02278
3188.79842	0.02273
3186.73847	0.02281
3184.67852	0.02290
3182.61857	0.02295
3180.55863	0.02294
3178.49868	0.02286
3176.43873	0.02280
3174.37878	0.02280
3172.31884	0.02284
3170.25889	0.02291
3168.19894	0.02303
3166.13900	0.02309
3164.07905	0.02300
3162.01910	0.02283
3159.95915	0.02272
3157.89921	0.02268
3155.83926	0.02268
3153.77931	0.02267
3151.71936	0.02267
3149.65942	0.02268
3147.59947	0.02264
3145.53952	0.02254
3143.47958	0.02247
3141.41963	0.02248
3139.35968	0.02252
3137.29973	0.02254
3135.23979	0.02253
3133.17984	0.02249
3131.11989	0.02244
3129.05994	0.02241
3127.00000	0.02242
3124.94005	0.02244
3122.88010	0.02245
3120.82016	0.02245
3118.76021	0.02246
3116.70026	0.02243
3114.64031	0.02233
3112.58037	0.02224
3110.52042	0.02224
3108.46047	0.02232
3106.40052	0.02235
3104.34058	0.02230
3102.28063	0.02224
3100.22068	0.02218
3098.16073	0.02213
3096.10079	0.02211
3094.04084	0.02212
3091.98089	0.02213
3089.92095	0.02213
3087.86100	0.02217
3085.80105	0.02225
3083.74110	0.02227
3081.68116	0.02222
3079.62121	0.02216
3077.56126	0.02215
3075.50131	0.02212
3073.44137	0.02204
3071.38142	0.02199
3069.32147	0.02196
3067.26153	0.02191
3065.20158	0.02185
3063.14163	0.02181
3061.08168	0.02181
3059.02174	0.02184
3056.96179	0.02186
3054.90184	0.02185
3052.84189	0.02185
3050.78195	0.02190
3048.72200	0.02190
3046.66205	0.02182
3044.60211	0.02179
3042.54216	0.02178
3040.48221	0.02170
3038.42226	0.02168
3036.36232	0.02168
3034.30237	0.02163
3032.24242	0.02161
3030.18247	0.02168
3028.12253	0.02175
3026.06258	0.02177
3024.00263	0.02178
3021.94268	0.02177
3019.88274	0.02170
3017.82279	0.02163
3015.76284	0.02157
3013.70290	0.02154
3011.64295	0.02153
3009.58300	0.02155
3007.52305	0.02159
3005.46311	0.02161
3003.40316	0.02155
3001.34321	0.02145
2999.28326	0.02148
2997.22332	0.02156
2995.16337	0.02154
2993.10342	0.02143
2991.04348	0.02136
2988.98353	0.02137
2986.92358	0.02141
2984.86363	0.02142
2982.80369	0.02141
2980.74374	0.02138
2978.68379	0.02133
2976.62384	0.02126
2974.56390	0.02126
2972.50395	0.02128
2970.44400	0.02125
2968.38406	0.02122
2966.32411	0.02120
2964.26416	0.02116
2962.20421	0.02114
2960.14427	0.02113
2958.08432	0.02109
2956.02437	0.02108
2953.96442	0.02112
2951.90448	0.02117
2949.84453	0.02117
2947.78458	0.02113
2945.72463	0.02114
2943.66469	0.02119
2941.60474	0.02117
2939.54479	0.02110
2937.48485	0.02110
2935.42490	0.02117
2933.36495	0.02118
2931.30500	0.02113
2929.24506	0.02105
2927.18511	0.02101
2925.12516	0.02106
2923.06521	0.02114
2921.00527	0.02119
2918.94532	0.02124
2916.88537	0.02125
2914.82543	0.02122
2912.76548	0.02122
2910.70553	0.02121
2908.64558	0.02112
2906.58564	0.02103
2904.52569	0.02099
2902.46574	0.02098
2900.40579	0.02094
2898.34585	0.02090
2896.28590	0.02090
2894.22595	0.02093
2892.16601	0.02094
2890.10606	0.02091
2888.04611	0.02090
2885.98616	0.02091
2883.92622	0.02086
2881.86627	0.02077
2879.80632	0.02074
2877.74637	0.02075
2875.68643	0.02074
2873.62648	0.02072
2871.56653	0.02073
2869.50658	0.02077
2867.44664	0.02080
2865.38669	0.02076
2863.32674	0.02072
2861.26680	0.02072
2859.20685	0.02070
2857.14690	0.02071
2855.08695	0.02074
2853.02701	0.02074
2850.96706	0.02075
2848.90711	0.02076
2846.84716	0.02068
2844.78722	0.02061
2842.72727	0.02062
2840.66732	0.02062
2838.60738	0.02060
2836.54743	0.02058
2834.48748	0.02050
2832.42753	0.02041
2830.36759	0.02041
2828.30764	0.02048
2826.24769	0.02057
2824.18774	0.02056
2822.12780	0.02050
2820.06785	0.02049
2818.00790	0.02055
2815.94796	0.02055
2813.88801	0.02045
2811.82806	0.02032
2809.76811	0.02026
2807.70817	0.02025
2805.64822	0.02023
2803.58827	0.02024
2801.52832	0.02028
2799.46838	0.02031
2797.40843	0.02028
2795.34848	0.02023
2793.28853	0.02019
2791.22859	0.02018
2789.16864	0.02015
2787.10869	0.02010
2785.04875	0.02008
2782.98880	0.02013
2780.92885	0.02017
2778.86890	0.02019
2776.80896	0.02019
2774.74901	0.02014
2772.68906	0.02010
2770.62911	0.02007
2768.56917	0.02003
2766.50922	0.02000
2764.44927	0.01999
2762.38933	0.01998
2760.32938	0.01998
2758.26943	0.02002
2756.20948	0.02005
2754.14954	0.02003
2752.08959	0.02001
2750.02964	0.01998
2747.96969	0.01990
2745.90975	0.01987
2743.84980	0.01990
2741.78985	0.01988
2739.72991	0.01985
2737.66996	0.01987
2735.61001	0.01988
2733.55006	0.01988
2731.49012	0.01986
2729.43017	0.01982
2727.37022	0.01980
2725.31027	0.01981
2723.25033	0.01981
2721.19038	0.01981
2719.13043	0.01980
2717.07048	0.01976
2715.01054	0.01975
2712.95059	0.01979
2710.89064	0.01979
2708.83070	0.01974
2706.77075	0.01971
2704.71080	0.01973
2702.65085	0.01972
2700.59091	0.01968
2698.53096	0.01963
2696.47101	0.01957
2694.41106	0.01950
2692.35112	0.01947
2690.29117	0.01950
2688.23122	0.01955
2686.17128	0.01954
2684.11133	0.01954
2682.05138	0.01958
2679.99143	0.01962
2677.93149	0.01961
2675.87154	0.01957
2673.81159	0.01953
2671.75164	0.01954
2669.69170	0.01960
2667.63175	0.01969
2665.57180	0.01980
2663.51186	0.01990
2661.45191	0.02003
2659.39196	0.02021
2657.33201	0.02031
2655.27207	0.02028
2653.21212	0.02024
2651.15217	0.02024
2649.09222	0.02025
2647.03228	0.02024
2644.97233	0.02019
2642.91238	0.02011
2640.85243	0.02000
2638.79249	0.01993
2636.73254	0.01990
2634.67259	0.01984
2632.61265	0.01976
2630.55270	0.01968
2628.49275	0.01965
2626.43280	0.01963
2624.37286	0.01957
2622.31291	0.01948
2620.25296	0.01939
2618.19301	0.01932
2616.13307	0.01931
2614.07312	0.01926
2612.01317	0.01918
2609.95323	0.01912
2607.89328	0.01907
2605.83333	0.01905
2603.77338	0.01902
2601.71344	0.01894
2599.65349	0.01886
2597.59354	0.01876
2595.53359	0.01870
2593.47365	0.01874
2591.41370	0.01880
2589.35375	0.01880
2587.29381	0.01871
2585.23386	0.01858
2583.17391	0.01847
2581.11396	0.01835
2579.05402	0.01823
2576.99407	0.01822
2574.93412	0.01826
2572.87417	0.01822
2570.81423	0.01814
2568.75428	0.01809
2566.69433	0.01807
2564.63438	0.01805
2562.57444	0.01800
2560.51449	0.01799
2558.45454	0.01800
2556.39460	0.01794
2554.33465	0.01782
2552.27470	0.01773
2550.21475	0.01774
2548.15481	0.01779
2546.09486	0.01779
2544.03491	0.01773
2541.97496	0.01764
2539.91502	0.01757
2537.85507	0.01755
2535.79512	0.01759
2533.73518	0.01762
2531.67523	0.01750
2529.61528	0.01734
2527.55533	0.01732
2525.49539	0.01738
2523.43544	0.01741
2521.37549	0.01742
2519.31554	0.01741
2517.25560	0.01739
2515.19565	0.01739
2513.13570	0.01735
2511.07576	0.01730
2509.01581	0.01730
2506.95586	0.01724
2504.89591	0.01716
2502.83597	0.01713
2500.77602	0.01715
2498.71607	0.01721
2496.65612	0.01725
2494.59618	0.01724
2492.53623	0.01721
2490.47628	0.01718
2488.41633	0.01716
2486.35639	0.01707
2484.29644	0.01695
2482.23649	0.01693
2480.17655	0.01698
2478.11660	0.01697
2476.05665	0.01689
2473.99670	0.01687
2471.93676	0.01690
2469.87681	0.01694
2467.81686	0.01702
2465.75691	0.01704
2463.69697	0.01700
2461.63702	0.01701
2459.57707	0.01712
2457.51713	0.01724
2455.45718	0.01724
2453.39723	0.01715
2451.33728	0.01708
2449.27734	0.01703
2447.21739	0.01694
2445.15744	0.01686
2443.09749	0.01684
2441.03755	0.01682
2438.97760	0.01672
2436.91765	0.01666
2434.85771	0.01665
2432.79776	0.01655
2430.73781	0.01644
2428.67786	0.01642
2426.61792	0.01635
2424.55797	0.01627
2422.49802	0.01627
2420.43807	0.01631
2418.37813	0.01632
2416.31818	0.01626
2414.25823	0.01619
2412.19828	0.01613
2410.13834	0.01605
2408.07839	0.01597
2406.01844	0.01588
2403.95850	0.01583
2401.89855	0.01583
2399.83860	0.01583
2397.77865	0.01579
2395.71871	0.01572
2393.65876	0.01567
2391.59881	0.01565
2389.53886	0.01559
2387.47892	0.01553
2385.41897	0.01554
2383.35902	0.01555
2381.29908	0.01552
2379.23913	0.01549
2377.17918	0.01550
2375.11923	0.01545
2373.05929	0.01530
2370.99934	0.01519
2368.93939	0.01520
2366.87944	0.01532
2364.81950	0.01545
2362.75955	0.01555
2360.69960	0.01561
2358.63966	0.01565
2356.57971	0.01581
2354.51976	0.01610
2352.45981	0.01631
2350.39987	0.01633
2348.33992	0.01628
2346.27997	0.01623
2344.22002	0.01613
2342.16008	0.01597
2340.10013	0.01598
2338.04018	0.01614
2335.98023	0.01616
2333.92029	0.01607
2331.86034	0.01605
2329.80039	0.01653
2327.74045	0.01776
2325.68050	0.01885
2323.62055	0.01885
2321.56060	0.01826
2319.50066	0.01780
2317.44071	0.01748
2315.38076	0.01730
2313.32081	0.01726
2311.26087	0.01725
2309.20092	0.01719
2307.14097	0.01713
2305.08103	0.01710
2303.02108	0.01707
2300.96113	0.01702
2298.90118	0.01701
2296.84124	0.01705
2294.78129	0.01721
2292.72134	0.01752
2290.66139	0.01781
2288.60145	0.01799
2286.54150	0.01799
2284.48155	0.01767
2282.42161	0.01723
2280.36166	0.01692
2278.30171	0.01675
2276.24176	0.01658
2274.18182	0.01640
2272.12187	0.01624
2270.06192	0.01607
2268.00197	0.01581
2265.94203	0.01554
2263.88208	0.01548
2261.82213	0.01566
2259.76218	0.01589
2257.70224	0.01591
2255.64229	0.01562
2253.58234	0.01527
2251.52240	0.01517
2249.46245	0.01532
2247.40250	0.01547
2245.34255	0.01549
2243.28261	0.01541
2241.22266	0.01539
2239.16271	0.01542
2237.10276	0.01530
2235.04282	0.01521
2232.98287	0.01542
2230.92292	0.01549
2228.86298	0.01512
2226.80303	0.01475
2224.74308	0.01460
2222.68313	0.01453
2220.62319	0.01451
2218.56324	0.01450
2216.50329	0.01441
2214.44334	0.01439
2212.38340	0.01461
2210.32345	0.01479
2208.26350	0.01467
2206.20356	0.01451
2204.14361	0.01456
2202.08366	0.01470
2200.02371	0.01487
2197.96377	0.01510
2195.90382	0.01515
2193.84387	0.01494
2191.78392	0.01478
2189.72398	0.01482
2187.66403	0.01489
2185.60408	0.01458
2183.54413	0.01385
2181.48419	0.01360
2179.42424	0.01377
2177.36429	0.01333
2175.30435	0.01278
2173.24440	0.01315
2171.18445	0.01415
2169.12450	0.01511
2167.06456	0.01569
2165.00461	0.01585
2162.94466	0.01485
2160.88471	0.01130
2158.82477	0.00728
2156.76482	0.00639
2154.70487	0.00769
2152.64493	0.00895
2150.58498	0.00953
2148.52503	0.00978
2146.46508	0.01005
2144.40514	0.01015
2142.34519	0.01005
2140.28524	0.01012
2138.22529	0.01014
2136.16535	0.00978
2134.10540	0.00955
2132.04545	0.00994
2129.98551	0.01064
2127.92556	0.01130
2125.86561	0.01183
2123.80566	0.01222
2121.74572	0.01247
2119.68577	0.01266
2117.62582	0.01300
2115.56587	0.01335
2113.50593	0.01338
2111.44598	0.01329
2109.38603	0.01341
2107.32608	0.01359
2105.26614	0.01361
2103.20619	0.01361
2101.14624	0.01367
2099.08630	0.01352
2097.02635	0.01306
2094.96640	0.01264
2092.90645	0.01260
2090.84651	0.01284
2088.78656	0.01323
2086.72661	0.01359
2084.66666	0.01376
2082.60672	0.01382
2080.54677	0.01393
2078.48682	0.01403
2076.42688	0.01387
2074.36693	0.01357
2072.30698	0.01344
2070.24703	0.01341
2068.18709	0.01336
2066.12714	0.01333
2064.06719	0.01341
2062.00724	0.01349
2059.94730	0.01352
2057.88735	0.01347
2055.82740	0.01348
2053.76746	0.01423
2051.70751	0.01510
2049.64756	0.01480
2047.58761	0.01389
2045.52767	0.01330
2043.46772	0.01313
2041.40777	0.01345
2039.34782	0.01377
2037.28788	0.01342
2035.22793	0.01257
2033.16798	0.01182
2031.10803	0.01132
2029.04809	0.01103
2026.98814	0.01102
2024.92819	0.01126
2022.86825	0.01131
2020.80830	0.01111
2018.74835	0.01110
2016.68840	0.01113
2014.62846	0.01127
2012.56851	0.01168
2010.50856	0.01178
2008.44861	0.01120
2006.38867	0.01067
2004.32872	0.01099
2002.26877	0.01164
2000.20883	0.01201
1998.14888	0.01217
1996.08893	0.01238
1994.02898	0.01263
1991.96904	0.01284
1989.90909	0.01311
1987.84914	0.01346
1985.78919	0.01379
1983.72925	0.01435
1981.66930	0.01492
1979.60935	0.01416
1977.54941	0.01222
1975.48946	0.01089
1973.42951	0.01060
1971.36956	0.01087
1969.30962	0.01124
1967.24967	0.01119
1965.18972	0.01086
1963.12977	0.01079
1961.06983	0.01079
1959.00988	0.01065
1956.94993	0.01083
1954.88998	0.01141
1952.83004	0.01180
1950.77009	0.01185
1948.71014	0.01167
1946.65020	0.01143
1944.59025	0.01138
1942.53030	0.01141
1940.47035	0.01123
1938.41041	0.01110
1936.35046	0.01129
1934.29051	0.01160
1932.23056	0.01176
1930.17062	0.01177
1928.11067	0.01168
1926.05072	0.01159
1923.99078	0.01180
1921.93083	0.01229
1919.87088	0.01257
1917.81093	0.01254
1915.75099	0.01246
1913.69104	0.01248
1911.63109	0.01249
1909.57114	0.01249
1907.51120	0.01266
1905.45125	0.01293
1903.39130	0.01303
1901.33136	0.01307
1899.27141	0.01325
1897.21146	0.01346
1895.15151	0.01357
1893.09157	0.01364
1891.03162	0.01374
1888.97167	0.01375
1886.91172	0.01365
1884.85178	0.01360
1882.79183	0.01366
1880.73188	0.01372
1878.67193	0.01382
1876.61199	0.01395
1874.55204	0.01403
1872.49209	0.01411
1870.43215	0.01416
1868.37220	0.01407
1866.31225	0.01392
1864.25230	0.01382
1862.19236	0.01376
1860.13241	0.01376
1858.07246	0.01376
1856.01251	0.01364
1853.95257	0.01346
1851.89262	0.01332
1849.83267	0.01322
1847.77273	0.01311
1845.71278	0.01305
1843.65283	0.01307
1841.59288	0.01305
1839.53294	0.01304
1837.47299	0.01305
1835.41304	0.01301
1833.35309	0.01293
1831.29315	0.01296
1829.23320	0.01313
1827.17325	0.01321
1825.11331	0.01324
1823.05336	0.01325
1820.99341	0.01307
1818.93346	0.01275
1816.87352	0.01264
1814.81357	0.01283
1812.75362	0.01308
1810.69367	0.01326
1808.63373	0.01338
1806.57378	0.01344
1804.51383	0.01352
1802.45388	0.01363
1800.39394	0.01369
1798.33399	0.01367
1796.27404	0.01370
1794.21410	0.01382
1792.15415	0.01388
1790.09420	0.01380
1788.03425	0.01372
1785.97431	0.01370
1783.91436	0.01370
1781.85441	0.01367
1779.79446	0.01363
1777.73452	0.01362
1775.67457	0.01367
1773.61462	0.01375
1771.55468	0.01375
1769.49473	0.01370
1767.43478	0.01361
1765.37483	0.01347
1763.31489	0.01342
1761.25494	0.01348
1759.19499	0.01351
1757.13504	0.01350
1755.07510	0.01347
1753.01515	0.01346
1750.95520	0.01356
1748.89526	0.01370
1746.83531	0.01373
1744.77536	0.01368
1742.71541	0.01366
1740.65547	0.01371
1738.59552	0.01372
1736.53557	0.01366
1734.47562	0.01375
1732.41568	0.01389
1730.35573	0.01390
1728.29578	0.01386
1726.23583	0.01384
1724.17589	0.01390
1722.11594	0.01400
1720.05599	0.01409
1717.99605	0.01424
1715.93610	0.01441
1713.87615	0.01443
1711.81620	0.01440
1709.75626	0.01439
1707.69631	0.01444
1705.63636	0.01451
1703.57641	0.01454
1701.51647	0.01468
1699.45652	0.01500
1697.39657	0.01515
1695.33663	0.01510
1693.27668	0.01499
1691.21673	0.01499
1689.15678	0.01515
1687.09684	0.01529
1685.03689	0.01545
1682.97694	0.01562
1680.91699	0.01561
1678.85705	0.01554
1676.79710	0.01550
1674.73715	0.01553
1672.67721	0.01557
1670.61726	0.01563
1668.55731	0.01570
1666.49736	0.01566
1664.43742	0.01567
1662.37747	0.01577
1660.31752	0.01582
1658.25757	0.01581
1656.19763	0.01580
1654.13768	0.01590
1652.07773	0.01608
1650.01778	0.01610
1647.95784	0.01617
1645.89789	0.01629
1643.83794	0.01625
1641.77800	0.01618
1639.71805	0.01613
1637.65810	0.01621
1635.59815	0.01644
1633.53821	0.01652
1631.47826	0.01646
1629.41831	0.01652
1627.35836	0.01671
1625.29842	0.01688
1623.23847	0.01698
1621.17852	0.01699
1619.11858	0.01700
1617.05863	0.01711
1614.99868	0.01713
1612.93873	0.01705
1610.87879	0.01701
1608.81884	0.01699
1606.75889	0.01690
1604.69894	0.01678
1602.63900	0.01670
1600.57905	0.01669
1598.51910	0.01663
1596.45916	0.01652
1594.39921	0.01644
1592.33926	0.01637
1590.27931	0.01627
1588.21937	0.01618
1586.15942	0.01612
1584.09947	0.01610
1582.03952	0.01607
1579.97958	0.01597
1577.91963	0.01587
1575.85968	0.01578
1573.79973	0.01566
1571.73979	0.01561
1569.67984	0.01565
1567.61989	0.01563
1565.55995	0.01551
1563.50000	0.01537
1561.44005	0.01527
1559.38010	0.01538
1557.32016	0.01549
1555.26021	0.01534
1553.20026	0.01520
1551.14031	0.01509
1549.08037	0.01504
1547.02042	0.01504
1544.96047	0.01507
1542.90053	0.01505
1540.84058	0.01500
1538.78063	0.01498
1536.72068	0.01496
1534.66074	0.01503
1532.60079	0.01515
1530.54084	0.01517
1528.48089	0.01514
1526.42095	0.01511
1524.36100	0.01505
1522.30105	0.01502
1520.24111	0.01504
1518.18116	0.01502
1516.12121	0.01492
1514.06126	0.01479
1512.00132	0.01476
1509.94137	0.01485
1507.88142	0.01494
1505.82147	0.01480
1503.76153	0.01458
1501.70158	0.01450
1499.64163	0.01450
1497.58168	0.01453
1495.52174	0.01452
1493.46179	0.01444
1491.40184	0.01443
1489.34190	0.01445
1487.28195	0.01434
1485.22200	0.01418
1483.16205	0.01411
1481.10211	0.01408
1479.04216	0.01402
1476.98221	0.01401
1474.92226	0.01407
1472.86232	0.01415
1470.80237	0.01414
1468.74242	0.01407
1466.68248	0.01408
1464.62253	0.01414
1462.56258	0.01410
1460.50263	0.01408
1458.44269	0.01423
1456.38274	0.01432
1454.32279	0.01413
1452.26284	0.01397
1450.20290	0.01393
1448.14295	0.01392
1446.08300	0.01389
1444.02306	0.01385
1441.96311	0.01386
1439.90316	0.01386
1437.84321	0.01392
1435.78327	0.01400
1433.72332	0.01400
1431.66337	0.01400
1429.60342	0.01401
1427.54348	0.01398
1425.48353	0.01398
1423.42358	0.01403
1421.36363	0.01407
1419.30369	0.01414
1417.24374	0.01417
1415.18379	0.01410
1413.12385	0.01404
1411.06390	0.01402
1409.00395	0.01398
1406.94400	0.01397
1404.88406	0.01401
1402.82411	0.01402
1400.76416	0.01406
1398.70421	0.01413
1396.64427	0.01417
1394.58432	0.01415
1392.52437	0.01407
1390.46443	0.01401
1388.40448	0.01403
1386.34453	0.01403
1384.28458	0.01397
1382.22464	0.01398
1380.16469	0.01408
1378.10474	0.01417
1376.04479	0.01421
1373.98485	0.01419
1371.92490	0.01413
1369.86495	0.01413
1367.80501	0.01418
1365.74506	0.01420
1363.68511	0.01421
1361.62516	0.01420
1359.56522	0.01416
1357.50527	0.01410
1355.44532	0.01404
1353.38537	0.01400
1351.32543	0.01399
1349.26548	0.01402
1347.20553	0.01403
1345.14558	0.01404
1343.08564	0.01408
1341.02569	0.01416
1338.96574	0.01423
1336.90580	0.01426
1334.84585	0.01424
1332.78590	0.01416
1330.72595	0.01413
1328.66601	0.01417
1326.60606	0.01420
1324.54611	0.01426
1322.48616	0.01433
1320.42622	0.01441
1318.36627	0.01447
1316.30632	0.01450
1314.24638	0.01452
1312.18643	0.01452
1310.12648	0.01455
1308.06653	0.01463
1306.00659	0.01472
1303.94664	0.01482
1301.88669	0.01493
1299.82674	0.01506
1297.76680	0.01520
1295.70685	0.01533
1293.64690	0.01546
1291.58696	0.01562
1289.52701	0.01580
1287.46706	0.01597
1285.40711	0.01615
1283.34717	0.01635
1281.28722	0.01653
1279.22727	0.01665
1277.16732	0.01676
1275.10738	0.01694
1273.04743	0.01713
1270.98748	0.01728
1268.92753	0.01742
1266.86759	0.01755
1264.80764	0.01765
1262.74769	0.01775
1260.68775	0.01793
1258.62780	0.01815
1256.56785	0.01838
1254.50790	0.01865
1252.44796	0.01895
1250.38801	0.01929
1248.32806	0.01970
1246.26811	0.02012
1244.20817	0.02050
1242.14822	0.02089
1240.08827	0.02131
1238.02833	0.02177
1235.96838	0.02225
1233.90843	0.02277
1231.84848	0.02335
1229.78854	0.02401
1227.72859	0.02478
1225.66864	0.02571
1223.60869	0.02690
1221.54875	0.02829
1219.48880	0.02981
1217.42885	0.03141
1215.36891	0.03308
1213.30896	0.03479
1211.24901	0.03646
1209.18906	0.03805
1207.12912	0.03961
1205.06917	0.04111
1203.00922	0.04255
1200.94927	0.04390
1198.88933	0.04514
1196.82938	0.04627
1194.76943	0.04736
1192.70949	0.04846
1190.64954	0.04956
1188.58959	0.05061
1186.52964	0.05166
1184.46970	0.05275
1182.40975	0.05393
1180.34980	0.05525
1178.28985	0.05671
1176.22991	0.05836
1174.16996	0.06030
1172.11001	0.06252
1170.05006	0.06495
1167.99012	0.06756
1165.93017	0.07026
1163.87022	0.07248
1161.81028	0.07330
1159.75033	0.07244
1157.69038	0.07081
1155.63043	0.06958
1153.57049	0.06931
1151.51054	0.06985
1149.45059	0.07092
1147.39064	0.07227
1145.33070	0.07380
1143.27075	0.07543
1141.21080	0.07714
1139.15086	0.07897
1137.09091	0.08091
1135.03096	0.08294
1132.97101	0.08510
1130.91107	0.08739
1128.85112	0.08977
1126.79117	0.09225
1124.73122	0.09485
1122.67128	0.09749
1120.61133	0.10016
1118.55138	0.10288
1116.49144	0.10567
1114.43149	0.10850
1112.37154	0.11137
1110.31159	0.11427
1108.25165	0.11727
1106.19170	0.12042
1104.13175	0.12367
1102.07180	0.12700
1100.01186	0.13037
1097.95191	0.13382
1095.89196	0.13728
1093.83201	0.14069
1091.77207	0.14401
1089.71212	0.14719
1087.65217	0.15017
1085.59223	0.15280
1083.53228	0.15501
1081.47233	0.15685
1079.41238	0.15830
1077.35244	0.15928
1075.29249	0.15979
1073.23254	0.15987
1071.17259	0.15974
1069.11265	0.15971
1067.05270	0.15979
1064.99275	0.15994
1062.93281	0.16005
1060.87286	0.15976
1058.81291	0.15894
1056.75296	0.15792
1054.69302	0.15680
1052.63307	0.15547
1050.57312	0.15395
1048.51317	0.15239
1046.45323	0.15092
1044.39328	0.14961
1042.33333	0.14847
1040.27339	0.14743
1038.21344	0.14636
1036.15349	0.14514
1034.09354	0.14377
1032.03360	0.14239
1029.97365	0.14111
1027.91370	0.13984
1025.85375	0.13855
1023.79381	0.13725
1021.73386	0.13594
1019.67391	0.13464
1017.61396	0.13337
1015.55402	0.13213
1013.49407	0.13095
1011.43412	0.12981
1009.37418	0.12868
1007.31423	0.12752
1005.25428	0.12629
1003.19433	0.12497
1001.13439	0.12363
999.07444	0.12238
997.01449	0.12115
994.95454	0.11982
992.89460	0.11844
990.83465	0.11711
988.77470	0.11582
986.71476	0.11450
984.65481	0.11318
982.59486	0.11184
980.53491	0.11046
978.47497	0.10908
976.41502	0.10767
974.35507	0.10620
972.29512	0.10474
970.23518	0.10333
968.17523	0.10196
966.11528	0.10061
964.05534	0.09922
961.99539	0.09776
959.93544	0.09634
957.87549	0.09502
955.81555	0.09367
953.75560	0.09225
951.69565	0.09084
949.63570	0.08950
947.57576	0.08824
945.51581	0.08695
943.45586	0.08561
941.39591	0.08427
939.33597	0.08296
937.27602	0.08159
935.21607	0.08019
933.15613	0.07884
931.09618	0.07751
929.03623	0.07617
926.97628	0.07486
924.91634	0.07354
922.85639	0.07221
920.79644	0.07096
918.73649	0.06975
916.67655	0.06852
914.61660	0.06729
912.55665	0.06607
910.49671	0.06478
908.43676	0.06342
906.37681	0.06201
904.31686	0.06061
902.25692	0.05924
900.19697	0.05791
898.13702	0.05661
896.07707	0.05531
894.01713	0.05401
891.95718	0.05279
889.89723	0.05161
887.83729	0.05036
885.77734	0.04906
883.71739	0.04781
881.65744	0.04668
879.59750	0.04560
877.53755	0.04451
875.47760	0.04343
873.41765	0.04239
871.35771	0.04136
869.29776	0.04029
867.23781	0.03927
865.17786	0.03837
863.11792	0.03746
861.05797	0.03654
858.99802	0.03570
856.93808	0.03493
854.87813	0.03416
852.81818	0.03343
850.75823	0.03281
848.69829	0.03229
846.63834	0.03179
844.57839	0.03135
842.51844	0.03106
840.45850	0.03091
838.39855	0.03088
836.33860	0.03092
834.27866	0.03097
832.21871	0.03106
830.15876	0.03125
828.09881	0.03163
826.03887	0.03223
823.97892	0.03303
821.91897	0.03406
819.85902	0.03549
817.79908	0.03741
815.73913	0.03986
813.67918	0.04305
811.61924	0.04755
809.55929	0.05397
807.49934	0.06252
805.43939	0.07281
803.37945	0.08382
801.31950	0.09434
799.25955	0.10295
797.19960	0.10814
795.13966	0.10930
793.07971	0.10769
791.01976	0.10538
788.95981	0.10403
786.89987	0.10480
784.83992	0.10828
782.77997	0.11383
780.72003	0.11977
778.66008	0.12401
776.60013	0.12485
774.54018	0.12216
772.48024	0.11730
770.42029	0.11163
768.36034	0.10601
766.30039	0.10075
764.24045	0.09587
762.18050	0.09134
760.12055	0.08709
758.06061	0.08314
756.00066	0.07949
753.94071	0.07610
751.88076	0.07304
749.82082	0.07025
747.76087	0.06762
745.70092	0.06525
743.64097	0.06317
741.58103	0.06120
739.52108	0.05927
737.46113	0.05745
735.40119	0.05577
733.34124	0.05423
731.28129	0.05285
729.22134	0.05158
727.16140	0.05039
725.10145	0.04928
723.04150	0.04837
720.98155	0.04769
718.92161	0.04716
716.86166	0.04667
714.80171	0.04637
712.74176	0.04635
710.68182	0.04660
708.62187	0.04728
706.56192	0.04854
704.50198	0.05062
702.44203	0.05404
700.38208	0.05946
698.32213	0.06663
696.26219	0.07311
694.20224	0.07530
692.14229	0.07230
690.08234	0.06659
688.02240	0.06073
685.96245	0.05568
683.90250	0.05163
681.84256	0.04855
679.78261	0.04615
677.72266	0.04405
675.66271	0.04220
673.60277	0.04069
671.54282	0.03954
669.48287	0.03849
667.42292	0.03722
665.36298	0.03606
663.30303	0.03514
661.24308	0.03436
659.18314	0.03363
657.12319	0.03291
655.06324	0.03229
653.00329	0.03182
650.94335	0.03137
648.88340	0.03085
646.82345	0.03030
644.76350	0.02981
642.70356	0.02941
640.64361	0.02900
638.58366	0.02859
636.52371	0.02824
634.46377	0.02787
632.40382	0.02747
630.34387	0.02711
628.28393	0.02686
626.22398	0.02656
624.16403	0.02619
622.10408	0.02591
620.04414	0.02573
617.98419	0.02554
615.92424	0.02533
613.86429	0.02516
611.80435	0.02498
609.74440	0.02481
607.68445	0.02469
605.62451	0.02457
603.56456	0.02439
601.50461	0.02413
599.44466	0.02394
597.38472	0.02391
595.32477	0.02393
593.26482	0.02391
591.20487	0.02367
589.14493	0.02332
587.08498	0.02331
585.02503	0.02347
582.96509	0.02342
580.90514	0.02331
578.84519	0.02316
576.78524	0.02295
574.72530	0.02282
572.66535	0.02277
570.60540	0.02287
568.54545	0.02310
566.48551	0.02342
564.42556	0.02374
562.36561	0.02399
560.30566	0.02434
558.24572	0.02481
556.18577	0.02544
554.12582	0.02632
552.06588	0.02739
550.00593	0.02884
547.94598	0.03105
545.88603	0.03407
543.82609	0.03771
541.76614	0.04186
539.70619	0.04639
537.64624	0.05117
535.58630	0.05626
533.52635	0.06139
531.46640	0.06620
529.40646	0.07075
527.34651	0.07504
525.28656	0.07883
523.22661	0.08191
521.16667	0.08440
519.10672	0.08623
517.04677	0.08719
514.98682	0.08727
512.92688	0.08648
510.86693	0.08483
508.80698	0.08281
506.74704	0.08158
504.68709	0.08216
502.62714	0.08479
500.56719	0.08877
498.50725	0.09299
496.44730	0.09733
494.38735	0.10208
492.32740	0.10722
490.26746	0.11223
488.20751	0.11681
486.14756	0.12136
484.08761	0.12617
482.02767	0.13125
479.96772	0.13650
477.90777	0.14185
475.84783	0.14751
473.78788	0.15363
471.72793	0.16015
469.66798	0.16635
467.60804	0.17209
465.54809	0.17733
463.48814	0.18206
461.42819	0.18643
459.36825	0.18999
457.30830	0.19248
455.24835	0.19291
453.18841	0.19137
451.12846	0.18921
449.06851	0.18667
447.00856	0.18306
444.94862	0.17879
442.88867	0.17491
440.82872	0.17124
438.76877	0.16783
436.70883	0.16501
434.64888	0.16207
432.58893	0.15828
430.52899	0.15403
428.46904	0.14984
426.40909	0.14559
424.34914	0.14111
422.28920	0.13668
420.22925	0.13146
418.16930	0.12436
416.10935	0.11797
414.04941	0.11171
411.98946	0.10424
409.92951	0.09655
407.86956	0.09063
405.80962	0.08907
403.74967	0.09389
401.68972	0.10591
399.62978	0.12604
