3996.29776	0.03500
3994.23781	0.03493
3992.17786	0.03485
3990.11791	0.03485
3988.05797	0.03486
3985.99802	0.03478
3983.93807	0.03470
3981.87813	0.03475
3979.81818	0.03488
3977.75823	0.03499
3975.69828	0.03505
3973.63834	0.03503
3971.57839	0.03491
3969.51844	0.03481
3967.45849	0.03480
3965.39855	0.03476
3963.33860	0.03475
3961.27865	0.03480
3959.21870	0.03486
3957.15876	0.03487
3955.09881	0.03485
3953.03886	0.03486
3950.97892	0.03497
3948.91897	0.03516
3946.85902	0.03518
3944.79907	0.03515
3942.73913	0.03523
3940.67918	0.03515
3938.61923	0.03497
3936.55928	0.03495
3934.49934	0.03514
3932.43939	0.03534
3930.37944	0.03519
3928.31950	0.03484
3926.25955	0.03479
3924.19960	0.03495
3922.13965	0.03494
3920.07971	0.03495
3918.01976	0.03505
3915.95981	0.03493
3913.89986	0.03459
3911.83992	0.03438
3909.77997	0.03439
3907.72002	0.03465
3905.66008	0.03519
3903.60013	0.03573
3901.54018	0.03590
3899.48023	0.03568
3897.42029	0.03522
3895.36034	0.03493
3893.30039	0.03500
3891.24044	0.03501
3889.18050	0.03474
3887.12055	0.03484
3885.06060	0.03517
3883.00065	0.03514
3880.94071	0.03501
3878.88076	0.03473
3876.82081	0.03446
3874.76087	0.03460
3872.70092	0.03499
3870.64097	0.03539
3868.58102	0.03543
3866.52108	0.03526
3864.46113	0.03530
3862.40118	0.03509
3860.34123	0.03466
3858.28129	0.03457
3856.22134	0.03500
3854.16139	0.03591
3852.10145	0.03604
3850.04150	0.03506
3847.98155	0.03434
3845.92160	0.03418
3843.86166	0.03443
3841.80171	0.03487
3839.74176	0.03537
3837.68181	0.03550
3835.62187	0.03514
3833.56192	0.03486
3831.50197	0.03468
3829.44203	0.03447
3827.38208	0.03437
3825.32213	0.03435
3823.26218	0.03455
3821.20224	0.03500
3819.14229	0.03500
3817.08234	0.03476
3815.02239	0.03445
3812.96245	0.03390
3810.90250	0.03352
3808.84255	0.03365
3806.78260	0.03408
3804.72266	0.03434
3802.66271	0.03471
3800.60276	0.03496
3798.54282	0.03466
3796.48287	0.03429
3794.42292	0.03379
3792.36297	0.03331
3790.30303	0.03311
3788.24308	0.03320
3786.18313	0.03349
3784.12318	0.03360
3782.06324	0.03352
3780.00329	0.03354
3777.94334	0.03342
3775.88340	0.03311
3773.82345	0.03300
3771.76350	0.03332
3769.70355	0.03381
3767.64361	0.03394
3765.58366	0.03382
3763.52371	0.03365
3761.46376	0.03355
3759.40382	0.03360
3757.34387	0.03365
3755.28392	0.03373
3753.22398	0.03417
3751.16403	0.03495
3749.10408	0.03516
3747.04413	0.03487
3744.98419	0.03474
3742.92424	0.03439
3740.86429	0.03390
3738.80434	0.03386
3736.74440	0.03442
3734.68445	0.03479
3732.62450	0.03421
3730.56455	0.03351
3728.50461	0.03332
3726.44466	0.03347
3724.38471	0.03349
3722.32477	0.03331
3720.26482	0.03308
3718.20487	0.03287
3716.14492	0.03284
3714.08498	0.03322
3712.02503	0.03395
3709.96508	0.03401
3707.90513	0.03339
3705.84519	0.03304
3703.78524	0.03318
3701.72529	0.03346
3699.66535	0.03344
3697.60540	0.03330
3695.54545	0.03322
3693.48550	0.03340
3691.42556	0.03390
3689.36561	0.03426
3687.30566	0.03395
3685.24571	0.03338
3683.18577	0.03309
3681.12582	0.03318
3679.06587	0.03354
3677.00593	0.03423
3674.94598	0.03474
3672.88603	0.03450
3670.82608	0.03446
3668.76614	0.03424
3666.70619	0.03346
3664.64624	0.03296
3662.58629	0.03295
3660.52635	0.03309
3658.46640	0.03327
3656.40645	0.03350
3654.34651	0.03360
3652.28656	0.03397
3650.22661	0.03507
3648.16666	0.03574
3646.10672	0.03508
3644.04677	0.03435
3641.98682	0.03399
3639.92687	0.03382
3637.86693	0.03383
3635.80698	0.03402
3633.74703	0.03427
3631.68708	0.03473
3629.62714	0.03549
3627.56719	0.03557
3625.50724	0.03493
3623.44730	0.03472
3621.38735	0.03510
3619.32740	0.03562
3617.26745	0.03576
3615.20751	0.03579
3613.14756	0.03572
3611.08761	0.03552
3609.02766	0.03552
3606.96772	0.03544
3604.90777	0.03509
3602.84782	0.03503
3600.78788	0.03531
3598.72793	0.03552
3596.66798	0.03565
3594.60803	0.03562
3592.54809	0.03534
3590.48814	0.03533
3588.42819	0.03587
3586.36824	0.03610
3584.30830	0.03566
3582.24835	0.03537
3580.18840	0.03533
3578.12846	0.03529
3576.06851	0.03526
3574.00856	0.03530
3571.94861	0.03541
3569.88867	0.03590
3567.82872	0.03678
3565.76877	0.03698
3563.70882	0.03636
3561.64888	0.03602
3559.58893	0.03600
3557.52898	0.03594
3555.46903	0.03594
3553.40909	0.03607
3551.34914	0.03614
3549.28919	0.03633
3547.22925	0.03673
3545.16930	0.03680
3543.10935	0.03643
3541.04940	0.03620
3538.98946	0.03633
3536.92951	0.03654
3534.86956	0.03654
3532.80961	0.03649
3530.74967	0.03659
3528.68972	0.03680
3526.62977	0.03705
3524.56983	0.03724
3522.50988	0.03726
3520.44993	0.03716
3518.38998	0.03711
3516.33004	0.03708
3514.27009	0.03706
3512.21014	0.03714
3510.15019	0.03732
3508.09025	0.03741
3506.03030	0.03748
3503.97035	0.03768
3501.91041	0.03780
3499.85046	0.03772
3497.79051	0.03759
3495.73056	0.03749
3493.67062	0.03746
3491.61067	0.03748
3489.55072	0.03754
3487.49077	0.03769
3485.43083	0.03785
3483.37088	0.03792
3481.31093	0.03791
3479.25098	0.03782
3477.19104	0.03781
3475.13109	0.03791
3473.07114	0.03796
3471.01120	0.03797
3468.95125	0.03801
3466.89130	0.03801
3464.83135	0.03805
3462.77141	0.03815
3460.71146	0.03817
3458.65151	0.03814
3456.59156	0.03820
3454.53162	0.03827
3452.47167	0.03832
3450.41172	0.03843
3448.35178	0.03867
3446.29183	0.03881
3444.23188	0.03869
3442.17193	0.03852
3440.11199	0.03848
3438.05204	0.03847
3435.99209	0.03846
3433.93214	0.03848
3431.87220	0.03849
3429.81225	0.03852
3427.75230	0.03869
3425.69236	0.03886
3423.63241	0.03891
3421.57246	0.03890
3419.51251	0.03891
3417.45257	0.03895
3415.39262	0.03895
3413.33267	0.03894
3411.27272	0.03895
3409.21278	0.03891
3407.15283	0.03885
3405.09288	0.03895
3403.03293	0.03912
3400.97299	0.03920
3398.91304	0.03920
3396.85309	0.03915
3394.79315	0.03911
3392.73320	0.03910
3390.67325	0.03908
3388.61330	0.03907
3386.55336	0.03912
3384.49341	0.03920
3382.43346	0.03919
3380.37351	0.03910
3378.31357	0.03907
3376.25362	0.03911
3374.19367	0.03918
3372.13373	0.03922
3370.07378	0.03928
3368.01383	0.03936
3365.95388	0.03934
3363.89394	0.03928
3361.83399	0.03931
3359.77404	0.03934
3357.71409	0.03933
3355.65415	0.03933
3353.59420	0.03934
3351.53425	0.03931
3349.47431	0.03925
3347.41436	0.03925
3345.35441	0.03926
3343.29446	0.03922
3341.23452	0.03914
3339.17457	0.03914
3337.11462	0.03918
3335.05467	0.03913
3332.99473	0.03907
3330.93478	0.03908
3328.87483	0.03910
3326.81488	0.03917
3324.75494	0.03926
3322.69499	0.03924
3320.63504	0.03915
3318.57510	0.03908
3316.51515	0.03906
3314.45520	0.03907
3312.39525	0.03908
3310.33531	0.03915
3308.27536	0.03920
3306.21541	0.03912
3304.15546	0.03901
3302.09552	0.03901
3300.03557	0.03902
3297.97562	0.03898
3295.91568	0.03890
3293.85573	0.03889
3291.79578	0.03894
3289.73583	0.03897
3287.67589	0.03896
3285.61594	0.03893
3283.55599	0.03889
3281.49604	0.03885
3279.43610	0.03880
3277.37615	0.03880
3275.31620	0.03883
3273.25626	0.03885
3271.19631	0.03881
3269.13636	0.03871
3267.07641	0.03863
3265.01647	0.03862
3262.95652	0.03862
3260.89657	0.03861
3258.83662	0.03856
3256.77668	0.03847
3254.71673	0.03839
3252.65678	0.03836
3250.59683	0.03835
3248.53689	0.03832
3246.47694	0.03830
3244.41699	0.03827
3242.35705	0.03817
3240.29710	0.03808
3238.23715	0.03808
3236.17720	0.03809
3234.11726	0.03811
3232.05731	0.03817
3229.99736	0.03820
3227.93741	0.03813
3225.87747	0.03803
3223.81752	0.03799
3221.75757	0.03800
3219.69763	0.03799
3217.63768	0.03795
3215.57773	0.03792
3213.51778	0.03790
3211.45784	0.03786
3209.39789	0.03779
3207.33794	0.03768
3205.27799	0.03760
3203.21805	0.03757
3201.15810	0.03756
3199.09815	0.03756
3197.03821	0.03752
3194.97826	0.03742
3192.91831	0.03728
3190.85836	0.03720
3188.79842	0.03718
3186.73847	0.03720
3184.67852	0.03726
3182.61857	0.03732
3180.55863	0.03733
3178.49868	0.03729
3176.43873	0.03719
3174.37878	0.03706
3172.31884	0.03699
3170.25889	0.03700
3168.19894	0.03706
3166.13900	0.03714
3164.07905	0.03711
3162.01910	0.03698
3159.95915	0.03690
3157.89921	0.03689
3155.83926	0.03683
3153.77931	0.03671
3151.71936	0.03661
3149.65942	0.03657
3147.59947	0.03649
3145.53952	0.03640
3143.47958	0.03637
3141.41963	0.03636
3139.35968	0.03630
3137.29973	0.03622
3135.23979	0.03622
3133.17984	0.03623
3131.11989	0.03620
3129.05994	0.03611
3127.00000	0.03606
3124.94005	0.03609
3122.88010	0.03614
3120.82016	0.03618
3118.76021	0.03622
3116.70026	0.03618
3114.64031	0.03606
3112.58037	0.03596
3110.52042	0.03591
3108.46047	0.03589
3106.40052	0.03585
3104.34058	0.03585
3102.28063	0.03587
3100.22068	0.03586
3098.16073	0.03581
3096.10079	0.03572
3094.04084	0.03561
3091.98089	0.03557
3089.92095	0.03560
3087.86100	0.03563
3085.80105	0.03566
3083.74110	0.03563
3081.68116	0.03551
3079.62121	0.03541
3077.56126	0.03540
3075.50131	0.03541
3073.44137	0.03537
3071.38142	0.03529
3069.32147	0.03523
3067.26153	0.03514
3065.20158	0.03504
3063.14163	0.03495
3061.08168	0.03491
3059.02174	0.03491
3056.96179	0.03493
3054.90184	0.03492
3052.84189	0.03491
3050.78195	0.03495
3048.72200	0.03486
3046.66205	0.03468
3044.60211	0.03462
3042.54216	0.03459
3040.48221	0.03451
3038.42226	0.03449
3036.36232	0.03447
3034.30237	0.03443
3032.24242	0.03445
3030.18247	0.03451
3028.12253	0.03452
3026.06258	0.03453
3024.00263	0.03452
3021.94268	0.03448
3019.88274	0.03441
3017.82279	0.03436
3015.76284	0.03430
3013.70290	0.03424
3011.64295	0.03419
3009.58300	0.03418
3007.52305	0.03413
3005.46311	0.03405
3003.40316	0.03398
3001.34321	0.03395
2999.28326	0.03399
2997.22332	0.03408
2995.16337	0.03407
2993.10342	0.03392
2991.04348	0.03380
2988.98353	0.03375
2986.92358	0.03372
2984.86363	0.03378
2982.80369	0.03389
2980.74374	0.03397
2978.68379	0.03399
2976.62384	0.03395
2974.56390	0.03389
2972.50395	0.03384
2970.44400	0.03387
2968.38406	0.03394
2966.32411	0.03396
2964.26416	0.03398
2962.20421	0.03404
2960.14427	0.03407
2958.08432	0.03404
2956.02437	0.03401
2953.96442	0.03403
2951.90448	0.03406
2949.84453	0.03404
2947.78458	0.03404
2945.72463	0.03415
2943.66469	0.03430
2941.60474	0.03437
2939.54479	0.03443
2937.48485	0.03454
2935.42490	0.03465
2933.36495	0.03478
2931.30500	0.03489
2929.24506	0.03493
2927.18511	0.03500
2925.12516	0.03515
2923.06521	0.03533
2921.00527	0.03540
2918.94532	0.03537
2916.88537	0.03528
2914.82543	0.03509
2912.76548	0.03488
2910.70553	0.03469
2908.64558	0.03448
2906.58564	0.03430
2904.52569	0.03421
2902.46574	0.03413
2900.40579	0.03399
2898.34585	0.03387
2896.28590	0.03384
2894.22595	0.03381
2892.16601	0.03369
2890.10606	0.03357
2888.04611	0.03355
2885.98616	0.03358
2883.92622	0.03357
2881.86627	0.03351
2879.80632	0.03345
2877.74637	0.03338
2875.68643	0.03333
2873.62648	0.03333
2871.56653	0.03332
2869.50658	0.03331
2867.44664	0.03330
2865.38669	0.03327
2863.32674	0.03326
2861.26680	0.03327
2859.20685	0.03333
2857.14690	0.03343
2855.08695	0.03355
2853.02701	0.03368
2850.96706	0.03377
2848.90711	0.03371
2846.84716	0.03351
2844.78722	0.03332
2842.72727	0.03318
2840.66732	0.03299
2838.60738	0.03281
2836.54743	0.03266
2834.48748	0.03249
2832.42753	0.03238
2830.36759	0.03237
2828.30764	0.03236
2826.24769	0.03229
2824.18774	0.03221
2822.12780	0.03217
2820.06785	0.03212
2818.00790	0.03204
2815.94796	0.03197
2813.88801	0.03191
2811.82806	0.03185
2809.76811	0.03180
2807.70817	0.03179
2805.64822	0.03176
2803.58827	0.03171
2801.52832	0.03170
2799.46838	0.03173
2797.40843	0.03176
2795.34848	0.03173
2793.28853	0.03164
2791.22859	0.03155
2789.16864	0.03149
2787.10869	0.03141
2785.04875	0.03136
2782.98880	0.03138
2780.92885	0.03143
2778.86890	0.03143
2776.80896	0.03140
2774.74901	0.03135
2772.68906	0.03130
2770.62911	0.03125
2768.56917	0.03120
2766.50922	0.03117
2764.44927	0.03115
2762.38933	0.03110
2760.32938	0.03106
2758.26943	0.03108
2756.20948	0.03109
2754.14954	0.03105
2752.08959	0.03104
2750.02964	0.03103
2747.96969	0.03096
2745.90975	0.03088
2743.84980	0.03086
2741.78985	0.03085
2739.72991	0.03083
2737.66996	0.03084
2735.61001	0.03085
2733.55006	0.03083
2731.49012	0.03079
2729.43017	0.03075
2727.37022	0.03077
2725.31027	0.03079
2723.25033	0.03075
2721.19038	0.03069
2719.13043	0.03063
2717.07048	0.03057
2715.01054	0.03055
2712.95059	0.03059
2710.89064	0.03060
2708.83070	0.03054
2706.77075	0.03051
2704.71080	0.03052
2702.65085	0.03053
2700.59091	0.03047
2698.53096	0.03036
2696.47101	0.03030
2694.41106	0.03031
2692.35112	0.03030
2690.29117	0.03027
2688.23122	0.03029
2686.17128	0.03033
2684.11133	0.03034
2682.05138	0.03032
2679.99143	0.03028
2677.93149	0.03023
2675.87154	0.03016
2673.81159	0.03010
2671.75164	0.03010
2669.69170	0.03014
2667.63175	0.03025
2665.57180	0.03040
2663.51186	0.03050
2661.45191	0.03058
2659.39196	0.03069
2657.33201	0.03075
2655.27207	0.03072
2653.21212	0.03063
2651.15217	0.03057
2649.09222	0.03057
2647.03228	0.03058
2644.97233	0.03053
2642.91238	0.03045
2640.85243	0.03037
2638.79249	0.03032
2636.73254	0.03025
2634.67259	0.03013
2632.61265	0.03000
2630.55270	0.02986
2628.49275	0.02976
2626.43280	0.02969
2624.37286	0.02959
2622.31291	0.02947
2620.25296	0.02935
2618.19301	0.02927
2616.13307	0.02925
2614.07312	0.02921
2612.01317	0.02913
2609.95323	0.02900
2607.89328	0.02888
2605.83333	0.02880
2603.77338	0.02875
2601.71344	0.02869
2599.65349	0.02865
2597.59354	0.02862
2595.53359	0.02852
2593.47365	0.02844
2591.41370	0.02842
2589.35375	0.02839
2587.29381	0.02829
2585.23386	0.02819
2583.17391	0.02813
2581.11396	0.02809
2579.05402	0.02805
2576.99407	0.02804
2574.93412	0.02802
2572.87417	0.02794
2570.81423	0.02784
2568.75428	0.02775
2566.69433	0.02773
2564.63438	0.02776
2562.57444	0.02775
2560.51449	0.02771
2558.45454	0.02769
2556.39460	0.02759
2554.33465	0.02743
2552.27470	0.02735
2550.21475	0.02734
2548.15481	0.02730
2546.09486	0.02726
2544.03491	0.02731
2541.97496	0.02735
2539.91502	0.02726
2537.85507	0.02713
2535.79512	0.02709
2533.73518	0.02708
2531.67523	0.02698
2529.61528	0.02686
2527.55533	0.02682
2525.49539	0.02685
2523.43544	0.02690
2521.37549	0.02690
2519.31554	0.02683
2517.25560	0.02681
2515.19565	0.02683
2513.13570	0.02671
2511.07576	0.02654
2509.01581	0.02653
2506.95586	0.02661
2504.89591	0.02660
2502.83597	0.02650
2500.77602	0.02648
2498.71607	0.02661
2496.65612	0.02670
2494.59618	0.02666
2492.53623	0.02657
2490.47628	0.02649
2488.41633	0.02639
2486.35639	0.02636
2484.29644	0.02640
2482.23649	0.02642
2480.17655	0.02644
2478.11660	0.02644
2476.05665	0.02638
2473.99670	0.02632
2471.93676	0.02627
2469.87681	0.02626
2467.81686	0.02629
2465.75691	0.02628
2463.69697	0.02630
2461.63702	0.02641
2459.57707	0.02652
2457.51713	0.02657
2455.45718	0.02656
2453.39723	0.02649
2451.33728	0.02642
2449.27734	0.02636
2447.21739	0.02632
2445.15744	0.02628
2443.09749	0.02619
2441.03755	0.02604
2438.97760	0.02589
2436.91765	0.02585
2434.85771	0.02583
2432.79776	0.02571
2430.73781	0.02565
2428.67786	0.02565
2426.61792	0.02560
2424.55797	0.02559
2422.49802	0.02558
2420.43807	0.02552
2418.37813	0.02544
2416.31818	0.02541
2414.25823	0.02537
2412.19828	0.02532
2410.13834	0.02527
2408.07839	0.02521
2406.01844	0.02510
2403.95850	0.02499
2401.89855	0.02494
2399.83860	0.02496
2397.77865	0.02497
2395.71871	0.02492
2393.65876	0.02489
2391.59881	0.02490
2389.53886	0.02490
2387.47892	0.02490
2385.41897	0.02497
2383.35902	0.02504
2381.29908	0.02506
2379.23913	0.02512
2377.17918	0.02520
2375.11923	0.02513
2373.05929	0.02494
2370.99934	0.02480
2368.93939	0.02474
2366.87944	0.02476
2364.81950	0.02490
2362.75955	0.02502
2360.69960	0.02503
2358.63966	0.02500
2356.57971	0.02506
2354.51976	0.02527
2352.45981	0.02551
2350.39987	0.02565
2348.33992	0.02566
2346.27997	0.02566
2344.22002	0.02566
2342.16008	0.02560
2340.10013	0.02555
2338.04018	0.02548
2335.98023	0.02536
2333.92029	0.02537
2331.86034	0.02559
2329.80039	0.02617
2327.74045	0.02737
2325.68050	0.02850
2323.62055	0.02849
2321.56060	0.02773
2319.50066	0.02716
2317.44071	0.02687
2315.38076	0.02673
2313.32081	0.02666
2311.26087	0.02658
2309.20092	0.02647
2307.14097	0.02638
2305.08103	0.02628
2303.02108	0.02620
2300.96113	0.02619
2298.90118	0.02619
2296.84124	0.02625
2294.78129	0.02652
2292.72134	0.02691
2290.66139	0.02711
2288.60145	0.02712
2286.54150	0.02691
2284.48155	0.02647
2282.42161	0.02604
2280.36166	0.02587
2278.30171	0.02577
2276.24176	0.02551
2274.18182	0.02527
2272.12187	0.02514
2270.06192	0.02499
2268.00197	0.02481
2265.94203	0.02466
2263.88208	0.02468
2261.82213	0.02482
2259.76218	0.02485
2257.70224	0.02469
2255.64229	0.02442
2253.58234	0.02424
2251.52240	0.02416
2249.46245	0.02411
2247.40250	0.02414
2245.34255	0.02423
2243.28261	0.02428
2241.22266	0.02420
2239.16271	0.02401
2237.10276	0.02381
2235.04282	0.02376
2232.98287	0.02392
2230.92292	0.02402
2228.86298	0.02385
2226.80303	0.02364
2224.74308	0.02357
2222.68313	0.02355
2220.62319	0.02344
2218.56324	0.02317
2216.50329	0.02293
2214.44334	0.02301
2212.38340	0.02320
2210.32345	0.02321
2208.26350	0.02316
2206.20356	0.02320
2204.14361	0.02317
2202.08366	0.02303
2200.02371	0.02308
2197.96377	0.02335
2195.90382	0.02341
2193.84387	0.02322
2191.78392	0.02330
2189.72398	0.02359
2187.66403	0.02348
2185.60408	0.02284
2183.54413	0.02208
2181.48419	0.02177
2179.42424	0.02193
2177.36429	0.02191
2175.30435	0.02170
2173.24440	0.02191
2171.18445	0.02269
2169.12450	0.02371
2167.06456	0.02433
2165.00461	0.02429
2162.94466	0.02327
2160.88471	0.01992
2158.82477	0.01582
2156.76482	0.01480
2154.70487	0.01624
2152.64493	0.01766
2150.58498	0.01832
2148.52503	0.01845
2146.46508	0.01846
2144.40514	0.01861
2142.34519	0.01881
2140.28524	0.01902
2138.22529	0.01896
2136.16535	0.01848
2134.10540	0.01843
2132.04545	0.01905
2129.98551	0.01966
2127.92556	0.02008
2125.86561	0.02046
2123.80566	0.02081
2121.74572	0.02105
2119.68577	0.02121
2117.62582	0.02162
2115.56587	0.02217
2113.50593	0.02233
2111.44598	0.02225
2109.38603	0.02237
2107.32608	0.02252
2105.26614	0.02243
2103.20619	0.02240
2101.14624	0.02256
2099.08630	0.02246
2097.02635	0.02192
2094.96640	0.02149
2092.90645	0.02152
2090.84651	0.02174
2088.78656	0.02192
2086.72661	0.02203
2084.66666	0.02215
2082.60672	0.02238
2080.54677	0.02268
2078.48682	0.02288
2076.42688	0.02287
2074.36693	0.02266
2072.30698	0.02236
2070.24703	0.02216
2068.18709	0.02203
2066.12714	0.02195
2064.06719	0.02198
2062.00724	0.02196
2059.94730	0.02193
2057.88735	0.02202
2055.82740	0.02205
2053.76746	0.02262
2051.70751	0.02353
2049.64756	0.02337
2047.58761	0.02258
2045.52767	0.02211
2043.46772	0.02185
2041.40777	0.02190
2039.34782	0.02208
2037.28788	0.02190
2035.22793	0.02136
2033.16798	0.02071
2031.10803	0.02011
2029.04809	0.01983
2026.98814	0.01990
2024.92819	0.01996
2022.86825	0.01980
2020.80830	0.01978
2018.74835	0.01998
2016.68840	0.01986
2014.62846	0.01975
2012.56851	0.02001
2010.50856	0.02011
2008.44861	0.01962
2006.38867	0.01917
2004.32872	0.01957
2002.26877	0.02031
2000.20883	0.02069
1998.14888	0.02069
1996.08893	0.02066
1994.02898	0.02085
1991.96904	0.02104
1989.90909	0.02120
1987.84914	0.02145
1985.78919	0.02173
1983.72925	0.02244
1981.66930	0.02325
1979.60935	0.02245
1977.54941	0.02018
1975.48946	0.01864
1973.42951	0.01834
1971.36956	0.01870
1969.30962	0.01934
1967.24967	0.01969
1965.18972	0.01956
1963.12977	0.01931
1961.06983	0.01888
1959.00988	0.01849
1956.94993	0.01867
1954.88998	0.01916
1952.83004	0.01957
1950.77009	0.01985
1948.71014	0.01991
1946.65020	0.01978
1944.59025	0.01975
1942.53030	0.01982
1940.47035	0.01974
1938.41041	0.01963
1936.35046	0.01971
1934.29051	0.01990
1932.23056	0.01997
1930.17062	0.01994
1928.11067	0.01990
1926.05072	0.01997
1923.99078	0.02030
1921.93083	0.02072
1919.87088	0.02092
1917.81093	0.02090
1915.75099	0.02080
1913.69104	0.02081
1911.63109	0.02099
1909.57114	0.02115
1907.51120	0.02119
1905.45125	0.02119
1903.39130	0.02116
1901.33136	0.02118
1899.27141	0.02131
1897.21146	0.02147
1895.15151	0.02152
1893.09157	0.02152
1891.03162	0.02171
1888.97167	0.02186
1886.91172	0.02179
1884.85178	0.02169
1882.79183	0.02163
1880.73188	0.02160
1878.67193	0.02162
1876.61199	0.02168
1874.55204	0.02175
1872.49209	0.02194
1870.43215	0.02234
1868.37220	0.02256
1866.31225	0.02222
1864.25230	0.02178
1862.19236	0.02160
1860.13241	0.02164
1858.07246	0.02168
1856.01251	0.02161
1853.95257	0.02146
1851.89262	0.02137
1849.83267	0.02144
1847.77273	0.02169
1845.71278	0.02197
1843.65283	0.02190
1841.59288	0.02153
1839.53294	0.02132
1837.47299	0.02126
1835.41304	0.02114
1833.35309	0.02109
1831.29315	0.02135
1829.23320	0.02161
1827.17325	0.02157
1825.11331	0.02151
1823.05336	0.02142
1820.99341	0.02117
1818.93346	0.02087
1816.87352	0.02080
1814.81357	0.02107
1812.75362	0.02146
1810.69367	0.02168
1808.63373	0.02167
1806.57378	0.02166
1804.51383	0.02181
1802.45388	0.02212
1800.39394	0.02229
1798.33399	0.02223
1796.27404	0.02230
1794.21410	0.02259
1792.15415	0.02270
1790.09420	0.02236
1788.03425	0.02211
1785.97431	0.02214
1783.91436	0.02226
1781.85441	0.02238
1779.79446	0.02241
1777.73452	0.02238
1775.67457	0.02262
1773.61462	0.02309
1771.55468	0.02327
1769.49473	0.02304
1767.43478	0.02267
1765.37483	0.02241
1763.31489	0.02251
1761.25494	0.02272
1759.19499	0.02283
1757.13504	0.02290
1755.07510	0.02292
1753.01515	0.02318
1750.95520	0.02380
1748.89526	0.02417
1746.83531	0.02408
1744.77536	0.02398
1742.71541	0.02397
1740.65547	0.02401
1738.59552	0.02404
1736.53557	0.02432
1734.47562	0.02489
1732.41568	0.02503
1730.35573	0.02474
1728.29578	0.02447
1726.23583	0.02438
1724.17589	0.02453
1722.11594	0.02482
1720.05599	0.02537
1717.99605	0.02624
1715.93610	0.02658
1713.87615	0.02619
1711.81620	0.02591
1709.75626	0.02603
1707.69631	0.02642
1705.63636	0.02680
1703.57641	0.02708
1701.51647	0.02754
1699.45652	0.02816
1697.39657	0.02840
1695.33663	0.02803
1693.27668	0.02767
1691.21673	0.02791
1689.15678	0.02853
1687.09684	0.02922
1685.03689	0.03000
1682.97694	0.03020
1680.91699	0.02990
1678.85705	0.02984
1676.79710	0.03004
1674.73715	0.03035
1672.67721	0.03075
1670.61726	0.03122
1668.55731	0.03128
1666.49736	0.03111
1664.43742	0.03134
1662.37747	0.03166
1660.31752	0.03171
1658.25757	0.03195
1656.19763	0.03270
1654.13768	0.03365
1652.07773	0.03367
1650.01778	0.03365
1647.95784	0.03410
1645.89789	0.03399
1643.83794	0.03349
1641.77800	0.03344
1639.71805	0.03384
1637.65810	0.03452
1635.59815	0.03471
1633.53821	0.03416
1631.47826	0.03400
1629.41831	0.03428
1627.35836	0.03463
1625.29842	0.03490
1623.23847	0.03496
1621.17852	0.03482
1619.11858	0.03496
1617.05863	0.03510
1614.99868	0.03475
1612.93873	0.03452
1610.87879	0.03460
1608.81884	0.03468
1606.75889	0.03460
1604.69894	0.03452
1602.63900	0.03450
1600.57905	0.03444
1598.51910	0.03438
1596.45916	0.03437
1594.39921	0.03432
1592.33926	0.03420
1590.27931	0.03410
1588.21937	0.03405
1586.15942	0.03403
1584.09947	0.03399
1582.03952	0.03392
1579.97958	0.03403
1577.91963	0.03436
1575.85968	0.03424
1573.79973	0.03380
1571.73979	0.03387
1569.67984	0.03398
1567.61989	0.03367
1565.55995	0.03342
1563.50000	0.03349
1561.44005	0.03405
1559.38010	0.03483
1557.32016	0.03424
1555.26021	0.03339
1553.20026	0.03296
1551.14031	0.03277
1549.08037	0.03265
1547.02042	0.03277
1544.96047	0.03341
1542.90053	0.03420
1540.84058	0.03429
1538.78063	0.03302
1536.72068	0.03224
1534.66074	0.03225
1532.60079	0.03209
1530.54084	0.03178
1528.48089	0.03193
1526.42095	0.03226
1524.36100	0.03248
1522.30105	0.03258
1520.24111	0.03235
1518.18116	0.03209
1516.12121	0.03170
1514.06126	0.03119
1512.00132	0.03121
1509.94137	0.03198
1507.88142	0.03269
1505.82147	0.03136
1503.76153	0.02998
1501.70158	0.02973
1499.64163	0.02991
1497.58168	0.02991
1495.52174	0.02943
1493.46179	0.02918
1491.40184	0.02954
1489.34190	0.02973
1487.28195	0.02904
1485.22200	0.02834
1483.16205	0.02811
1481.10211	0.02809
1479.04216	0.02822
1476.98221	0.02869
1474.92226	0.02940
1472.86232	0.02968
1470.80237	0.02916
1468.74242	0.02885
1466.68248	0.02908
1464.62253	0.02929
1462.56258	0.02927
1460.50263	0.02967
1458.44269	0.03055
1456.38274	0.03060
1454.32279	0.02981
1452.26284	0.02942
1450.20290	0.02939
1448.14295	0.02937
1446.08300	0.02912
1444.02306	0.02887
1441.96311	0.02888
1439.90316	0.02916
1437.84321	0.02960
1435.78327	0.02973
1433.72332	0.02959
1431.66337	0.02965
1429.60342	0.02972
1427.54348	0.02969
1425.48353	0.02984
1423.42358	0.03012
1421.36363	0.03049
1419.30369	0.03086
1417.24374	0.03064
1415.18379	0.03014
1413.12385	0.02995
1411.06390	0.02993
1409.00395	0.02992
1406.94400	0.03004
1404.88406	0.03015
1402.82411	0.03012
1400.76416	0.03032
1398.70421	0.03073
1396.64427	0.03093
1394.58432	0.03068
1392.52437	0.03020
1390.46443	0.03008
1388.40448	0.03028
1386.34453	0.03025
1384.28458	0.03000
1382.22464	0.02996
1380.16469	0.03012
1378.10474	0.03031
1376.04479	0.03050
1373.98485	0.03048
1371.92490	0.03019
1369.86495	0.03004
1367.80501	0.02999
1365.74506	0.03001
1363.68511	0.03019
1361.62516	0.03012
1359.56522	0.02972
1357.50527	0.02945
1355.44532	0.02936
1353.38537	0.02928
1351.32543	0.02921
1349.26548	0.02912
1347.20553	0.02901
1345.14558	0.02894
1343.08564	0.02906
1341.02569	0.02938
1338.96574	0.02950
1336.90580	0.02921
1334.84585	0.02884
1332.78590	0.02860
1330.72595	0.02851
1328.66601	0.02849
1326.60606	0.02852
1324.54611	0.02854
1322.48616	0.02859
1320.42622	0.02870
1318.36627	0.02878
1316.30632	0.02879
1314.24638	0.02877
1312.18643	0.02869
1310.12648	0.02856
1308.06653	0.02849
1306.00659	0.02848
1303.94664	0.02848
1301.88669	0.02852
1299.82674	0.02857
1297.76680	0.02863
1295.70685	0.02870
1293.64690	0.02881
1291.58696	0.02901
1289.52701	0.02921
1287.46706	0.02933
1285.40711	0.02944
1283.34717	0.02959
1281.28722	0.02977
1279.22727	0.02994
1277.16732	0.03009
1275.10738	0.03027
1273.04743	0.03047
1270.98748	0.03065
1268.92753	0.03077
1266.86759	0.03086
1264.80764	0.03097
1262.74769	0.03110
1260.68775	0.03124
1258.62780	0.03140
1256.56785	0.03161
1254.50790	0.03186
1252.44796	0.03212
1250.38801	0.03243
1248.32806	0.03283
1246.26811	0.03323
1244.20817	0.03356
1242.14822	0.03390
1240.08827	0.03432
1238.02833	0.03478
1235.96838	0.03522
1233.90843	0.03565
1231.84848	0.03616
1229.78854	0.03675
1227.72859	0.03739
1225.66864	0.03816
1223.60869	0.03912
1221.54875	0.04024
1219.48880	0.04151
1217.42885	0.04286
1215.36891	0.04424
1213.30896	0.04568
1211.24901	0.04715
1209.18906	0.04857
1207.12912	0.04995
1205.06917	0.05125
1203.00922	0.05245
1200.94927	0.05360
1198.88933	0.05469
1196.82938	0.05569
1194.76943	0.05663
1192.70949	0.05754
1190.64954	0.05845
1188.58959	0.05934
1186.52964	0.06021
1184.46970	0.06115
1182.40975	0.06217
1180.34980	0.06330
1178.28985	0.06462
1176.22991	0.06612
1174.16996	0.06782
1172.11001	0.06972
1170.05006	0.07180
1167.99012	0.07403
1165.93017	0.07629
1163.87022	0.07805
1161.81028	0.07869
1159.75033	0.07812
1157.69038	0.07703
1155.63043	0.07631
1153.57049	0.07638
1151.51054	0.07713
1149.45059	0.07827
1147.39064	0.07958
1145.33070	0.08099
1143.27075	0.08252
1141.21080	0.08418
1139.15086	0.08594
1137.09091	0.08783
1135.03096	0.08982
1132.97101	0.09191
1130.91107	0.09410
1128.85112	0.09638
1126.79117	0.09873
1124.73122	0.10117
1122.67128	0.10374
1120.61133	0.10635
1118.55138	0.10894
1116.49144	0.11157
1114.43149	0.11428
1112.37154	0.11700
1110.31159	0.11978
1108.25165	0.12268
1106.19170	0.12567
1104.13175	0.12866
1102.07180	0.13170
1100.01186	0.13490
1097.95191	0.13825
1095.89196	0.14152
1093.83201	0.14457
1091.77207	0.14746
1089.71212	0.15020
1087.65217	0.15266
1085.59223	0.15475
1083.53228	0.15649
1081.47233	0.15788
1079.41238	0.15883
1077.35244	0.15923
1075.29249	0.15908
1073.23254	0.15857
1071.17259	0.15794
1069.11265	0.15738
1067.05270	0.15695
1064.99275	0.15663
1062.93281	0.15630
1060.87286	0.15574
1058.81291	0.15489
1056.75296	0.15388
1054.69302	0.15277
1052.63307	0.15161
1050.57312	0.15049
1048.51317	0.14945
1046.45323	0.14847
1044.39328	0.14763
1042.33333	0.14698
1040.27339	0.14644
1038.21344	0.14590
1036.15349	0.14528
1034.09354	0.14460
1032.03360	0.14384
1029.97365	0.14305
1027.91370	0.14217
1025.85375	0.14122
1023.79381	0.14031
1021.73386	0.13951
1019.67391	0.13875
1017.61396	0.13798
1015.55402	0.13723
1013.49407	0.13653
1011.43412	0.13588
1009.37418	0.13524
1007.31423	0.13455
1005.25428	0.13375
1003.19433	0.13286
1001.13439	0.13197
999.07444	0.13109
997.01449	0.13014
994.95454	0.12912
992.89460	0.12809
990.83465	0.12708
988.77470	0.12605
986.71476	0.12498
984.65481	0.12388
982.59486	0.12280
980.53491	0.12176
978.47497	0.12069
976.41502	0.11955
974.35507	0.11832
972.29512	0.11710
970.23518	0.11593
968.17523	0.11475
966.11528	0.11354
964.05534	0.11234
961.99539	0.11109
959.93544	0.10975
957.87549	0.10841
955.81555	0.10710
953.75560	0.10583
951.69565	0.10463
949.63570	0.10348
947.57576	0.10232
945.51581	0.10120
943.45586	0.10011
941.39591	0.09899
939.33597	0.09792
937.27602	0.09686
935.21607	0.09576
933.15613	0.09470
931.09618	0.09373
929.03623	0.09282
926.97628	0.09199
924.91634	0.09115
922.85639	0.09030
920.79644	0.08955
918.73649	0.08880
916.67655	0.08799
914.61660	0.08716
912.55665	0.08625
910.49671	0.08522
908.43676	0.08409
906.37681	0.08291
904.31686	0.08174
902.25692	0.08055
900.19697	0.07936
898.13702	0.07826
896.07707	0.07715
894.01713	0.07598
891.95718	0.07483
889.89723	0.07375
887.83729	0.07275
885.77734	0.07174
883.71739	0.07066
881.65744	0.06964
879.59750	0.06875
877.53755	0.06787
875.47760	0.06690
873.41765	0.06589
871.35771	0.06488
869.29776	0.06386
867.23781	0.06289
865.17786	0.06199
863.11792	0.06111
861.05797	0.06019
858.99802	0.05919
856.93808	0.05820
854.87813	0.05731
852.81818	0.05650
850.75823	0.05572
848.69829	0.05496
846.63834	0.05418
844.57839	0.05342
842.51844	0.05283
840.45850	0.05250
838.39855	0.05233
836.33860	0.05214
834.27866	0.05185
832.21871	0.05164
830.15876	0.05160
828.09881	0.05169
826.03887	0.05190
823.97892	0.05227
821.91897	0.05281
819.85902	0.05359
817.79908	0.05482
815.73913	0.05655
813.67918	0.05889
811.61924	0.06235
809.55929	0.06734
807.49934	0.07401
805.43939	0.08216
803.37945	0.09091
801.31950	0.09901
799.25955	0.10533
797.19960	0.10877
795.13966	0.10905
793.07971	0.10740
791.01976	0.10560
788.95981	0.10480
786.89987	0.10574
784.83992	0.10870
782.77997	0.11308
780.72003	0.11740
778.66008	0.11997
776.60013	0.11986
774.54018	0.11742
772.48024	0.11374
770.42029	0.10977
768.36034	0.10603
766.30039	0.10269
764.24045	0.09971
762.18050	0.09703
760.12055	0.09457
758.06061	0.09225
756.00066	0.08999
753.94071	0.08794
751.88076	0.08610
749.82082	0.08440
747.76087	0.08283
745.70092	0.08140
743.64097	0.08002
741.58103	0.07862
739.52108	0.07725
737.46113	0.07596
735.40119	0.07482
733.34124	0.07387
731.28129	0.07308
729.22134	0.07231
727.16140	0.07154
725.10145	0.07088
723.04150	0.07036
720.98155	0.06987
718.92161	0.06932
716.86166	0.06879
714.80171	0.06840
712.74176	0.06819
710.68182	0.06828
708.62187	0.06868
706.56192	0.06927
704.50198	0.07041
702.44203	0.07276
700.38208	0.07664
698.32213	0.08174
696.26219	0.08647
694.20224	0.08835
692.14229	0.08674
690.08234	0.08334
688.02240	0.07975
685.96245	0.07655
683.90250	0.07390
681.84256	0.07178
679.78261	0.06993
677.72266	0.06828
675.66271	0.06697
673.60277	0.06598
671.54282	0.06524
669.48287	0.06450
667.42292	0.06314
665.36298	0.06195
663.30303	0.06130
661.24308	0.06074
659.18314	0.06023
657.12319	0.05973
655.06324	0.05936
653.00329	0.05919
650.94335	0.05907
648.88340	0.05881
646.82345	0.05844
644.76350	0.05804
642.70356	0.05769
640.64361	0.05740
638.58366	0.05712
636.52371	0.05679
634.46377	0.05633
632.40382	0.05591
630.34387	0.05563
628.28393	0.05536
626.22398	0.05506
624.16403	0.05485
622.10408	0.05473
620.04414	0.05467
617.98419	0.05464
615.92424	0.05471
613.86429	0.05484
611.80435	0.05492
609.74440	0.05515
607.68445	0.05558
605.62451	0.05590
603.56456	0.05596
601.50461	0.05589
599.44466	0.05575
597.38472	0.05564
595.32477	0.05565
593.26482	0.05581
591.20487	0.05589
589.14493	0.05583
587.08498	0.05599
585.02503	0.05630
582.96509	0.05653
580.90514	0.05671
578.84519	0.05691
576.78524	0.05704
574.72530	0.05708
572.66535	0.05717
570.60540	0.05736
568.54545	0.05760
566.48551	0.05796
564.42556	0.05824
562.36561	0.05839
560.30566	0.05875
558.24572	0.05931
556.18577	0.06005
554.12582	0.06101
552.06588	0.06217
550.00593	0.06365
547.94598	0.06566
545.88603	0.06826
543.82609	0.07134
541.76614	0.07490
539.70619	0.07883
537.64624	0.08284
535.58630	0.08692
533.52635	0.09100
531.46640	0.09484
529.40646	0.09846
527.34651	0.10188
525.28656	0.10493
523.22661	0.10739
521.16667	0.10932
519.10672	0.11078
517.04677	0.11144
514.98682	0.11104
512.92688	0.10982
510.86693	0.10803
508.80698	0.10619
506.74704	0.10528
504.68709	0.10605
502.62714	0.10841
500.56719	0.11157
498.50725	0.11493
496.44730	0.11862
494.38735	0.12276
492.32740	0.12719
490.26746	0.13149
488.20751	0.13561
486.14756	0.14028
484.08761	0.14562
482.02767	0.15100
479.96772	0.15643
477.90777	0.16208
475.84783	0.16794
473.78788	0.17427
471.72793	0.18081
469.66798	0.18670
467.60804	0.19213
465.54809	0.19712
463.48814	0.20127
461.42819	0.20494
459.36825	0.20781
457.30830	0.20871
455.24835	0.20744
453.18841	0.20490
451.12846	0.20162
449.06851	0.19815
447.00856	0.19454
444.94862	0.19119
442.88867	0.18829
440.82872	0.18524
438.76877	0.18273
436.70883	0.18096
434.64888	0.17861
432.58893	0.17566
430.52899	0.17331
428.46904	0.17145
426.40909	0.16922
424.34914	0.16673
422.28920	0.16489
420.22925	0.16295
418.16930	0.15827
416.10935	0.15258
414.04941	0.14720
411.98946	0.14136
409.92951	0.13548
407.86956	0.13016
405.80962	0.12762
403.74967	0.13076
401.68972	0.14070
399.62978	0.15770
