3996.29776	0.01537
3994.23781	0.01543
3992.17786	0.01538
3990.11791	0.01530
3988.05797	0.01531
3985.99802	0.01530
3983.93807	0.01527
3981.87813	0.01530
3979.81818	0.01528
3977.75823	0.01525
3975.69828	0.01536
3973.63834	0.01545
3971.57839	0.01537
3969.51844	0.01531
3967.45849	0.01536
3965.39855	0.01535
3963.33860	0.01530
3961.27865	0.01530
3959.21870	0.01530
3957.15876	0.01525
3955.09881	0.01520
3953.03886	0.01522
3950.97892	0.01533
3948.91897	0.01547
3946.85902	0.01552
3944.79907	0.01555
3942.73913	0.01567
3940.67918	0.01566
3938.61923	0.01549
3936.55928	0.01541
3934.49934	0.01548
3932.43939	0.01561
3930.37944	0.01557
3928.31950	0.01535
3926.25955	0.01530
3924.19960	0.01546
3922.13965	0.01544
3920.07971	0.01533
3918.01976	0.01547
3915.95981	0.01558
3913.89986	0.01541
3911.83992	0.01522
3909.77997	0.01513
3907.72002	0.01519
3905.66008	0.01554
3903.60013	0.01605
3901.54018	0.01632
3899.48023	0.01628
3897.42029	0.01596
3895.36034	0.01553
3893.30039	0.01537
3891.24044	0.01542
3889.18050	0.01534
3887.12055	0.01539
3885.06060	0.01570
3883.00065	0.01576
3880.94071	0.01579
3878.88076	0.01577
3876.82081	0.01548
3874.76087	0.01536
3872.70092	0.01540
3870.64097	0.01570
3868.58102	0.01599
3866.52108	0.01586
3864.46113	0.01594
3862.40118	0.01604
3860.34123	0.01574
3858.28129	0.01537
3856.22134	0.01529
3854.16139	0.01601
3852.10145	0.01670
3850.04150	0.01606
3847.98155	0.01531
3845.92160	0.01502
3843.86166	0.01512
3841.80171	0.01536
3839.74176	0.01566
3837.68181	0.01589
3835.62187	0.01578
3833.56192	0.01560
3831.50197	0.01556
3829.44203	0.01547
3827.38208	0.01539
3825.32213	0.01535
3823.26218	0.01539
3821.20224	0.01583
3819.14229	0.01594
3817.08234	0.01569
3815.02239	0.01567
3812.96245	0.01538
3810.90250	0.01492
3808.84255	0.01480
3806.78260	0.01517
3804.72266	0.01547
3802.66271	0.01576
3800.60276	0.01617
3798.54282	0.01603
3796.48287	0.01570
3794.42292	0.01537
3792.36297	0.01502
3790.30303	0.01483
3788.24308	0.01484
3786.18313	0.01498
3784.12318	0.01503
3782.06324	0.01494
3780.00329	0.01506
3777.94334	0.01518
3775.88340	0.01498
3773.82345	0.01475
3771.76350	0.01485
3769.70355	0.01520
3767.64361	0.01539
3765.58366	0.01540
3763.52371	0.01520
3761.46376	0.01488
3759.40382	0.01488
3757.34387	0.01506
3755.28392	0.01502
3753.22398	0.01511
3751.16403	0.01578
3749.10408	0.01623
3747.04413	0.01595
3744.98419	0.01589
3742.92424	0.01596
3740.86429	0.01555
3738.80434	0.01526
3736.74440	0.01558
3734.68445	0.01610
3732.62450	0.01595
3730.56455	0.01542
3728.50461	0.01513
3726.44466	0.01529
3724.38471	0.01547
3722.32477	0.01537
3720.26482	0.01523
3718.20487	0.01506
3716.14492	0.01487
3714.08498	0.01491
3712.02503	0.01543
3709.96508	0.01578
3707.90513	0.01547
3705.84519	0.01505
3703.78524	0.01493
3701.72529	0.01512
3699.66535	0.01519
3697.60540	0.01509
3695.54545	0.01502
3693.48550	0.01505
3691.42556	0.01530
3689.36561	0.01577
3687.30566	0.01588
3685.24571	0.01549
3683.18577	0.01505
3681.12582	0.01485
3679.06587	0.01490
3677.00593	0.01537
3674.94598	0.01605
3672.88603	0.01595
3670.82608	0.01584
3668.76614	0.01599
3666.70619	0.01554
3664.64624	0.01500
3662.58629	0.01485
3660.52635	0.01486
3658.46640	0.01491
3656.40645	0.01519
3654.34651	0.01536
3652.28656	0.01541
3650.22661	0.01609
3648.16666	0.01688
3646.10672	0.01650
3644.04677	0.01576
3641.98682	0.01540
3639.92687	0.01536
3637.86693	0.01538
3635.80698	0.01543
3633.74703	0.01549
3631.68708	0.01564
3629.62714	0.01633
3627.56719	0.01684
3625.50724	0.01626
3623.44730	0.01569
3621.38735	0.01568
3619.32740	0.01617
3617.26745	0.01652
3615.20751	0.01645
3613.14756	0.01636
3611.08761	0.01636
3609.02766	0.01646
3606.96772	0.01646
3604.90777	0.01614
3602.84782	0.01587
3600.78788	0.01590
3598.72793	0.01604
3596.66798	0.01615
3594.60803	0.01628
3592.54809	0.01621
3590.48814	0.01604
3588.42819	0.01630
3586.36824	0.01669
3584.30830	0.01649
3582.24835	0.01617
3580.18840	0.01606
3578.12846	0.01597
3576.06851	0.01594
3574.00856	0.01598
3571.94861	0.01600
3569.88867	0.01618
3567.82872	0.01689
3565.76877	0.01730
3563.70882	0.01686
3561.64888	0.01648
3559.58893	0.01644
3557.52898	0.01641
3555.46903	0.01635
3553.40909	0.01643
3551.34914	0.01648
3549.28919	0.01643
3547.22925	0.01656
3545.16930	0.01674
3543.10935	0.01670
3541.04940	0.01659
3538.98946	0.01653
3536.92951	0.01659
3534.86956	0.01664
3532.80961	0.01662
3530.74967	0.01665
3528.68972	0.01675
3526.62977	0.01685
3524.56983	0.01695
3522.50988	0.01702
3520.44993	0.01700
3518.38998	0.01695
3516.33004	0.01693
3514.27009	0.01685
3512.21014	0.01679
3510.15019	0.01692
3508.09025	0.01705
3506.03030	0.01704
3503.97035	0.01713
3501.91041	0.01730
3499.85046	0.01731
3497.79051	0.01720
3495.73056	0.01711
3493.67062	0.01703
3491.61067	0.01699
3489.55072	0.01705
3487.49077	0.01717
3485.43083	0.01726
3483.37088	0.01731
3481.31093	0.01734
3479.25098	0.01725
3477.19104	0.01715
3475.13109	0.01719
3473.07114	0.01729
3471.01120	0.01739
3468.95125	0.01743
3466.89130	0.01737
3464.83135	0.01732
3462.77141	0.01738
3460.71146	0.01749
3458.65151	0.01764
3456.59156	0.01773
3454.53162	0.01768
3452.47167	0.01755
3450.41172	0.01750
3448.35178	0.01761
3446.29183	0.01776
3444.23188	0.01773
3442.17193	0.01765
3440.11199	0.01764
3438.05204	0.01764
3435.99209	0.01762
3433.93214	0.01761
3431.87220	0.01760
3429.81225	0.01761
3427.75230	0.01767
3425.69236	0.01774
3423.63241	0.01778
3421.57246	0.01782
3419.51251	0.01790
3417.45257	0.01797
3415.39262	0.01794
3413.33267	0.01781
3411.27272	0.01773
3409.21278	0.01781
3407.15283	0.01793
3405.09288	0.01802
3403.03293	0.01806
3400.97299	0.01804
3398.91304	0.01801
3396.85309	0.01798
3394.79315	0.01795
3392.73320	0.01792
3390.67325	0.01788
3388.61330	0.01784
3386.55336	0.01791
3384.49341	0.01801
3382.43346	0.01803
3380.37351	0.01795
3378.31357	0.01789
3376.25362	0.01790
3374.19367	0.01798
3372.13373	0.01803
3370.07378	0.01804
3368.01383	0.01805
3365.95388	0.01807
3363.89394	0.01813
3361.83399	0.01814
3359.77404	0.01804
3357.71409	0.01795
3355.65415	0.01798
3353.59420	0.01801
3351.53425	0.01797
3349.47431	0.01794
3347.41436	0.01795
3345.35441	0.01795
3343.29446	0.01793
3341.23452	0.01793
3339.17457	0.01797
3337.11462	0.01803
3335.05467	0.01801
3332.99473	0.01797
3330.93478	0.01801
3328.87483	0.01801
3326.81488	0.01796
3324.75494	0.01793
3322.69499	0.01790
3320.63504	0.01788
3318.57510	0.01791
3316.51515	0.01796
3314.45520	0.01799
3312.39525	0.01796
3310.33531	0.01795
3308.27536	0.01800
3306.21541	0.01803
3304.15546	0.01801
3302.09552	0.01799
3300.03557	0.01801
3297.97562	0.01802
3295.91568	0.01796
3293.85573	0.01789
3291.79578	0.01787
3289.73583	0.01788
3287.67589	0.01792
3285.61594	0.01791
3283.55599	0.01784
3281.49604	0.01778
3279.43610	0.01779
3277.37615	0.01788
3275.31620	0.01799
3273.25626	0.01801
3271.19631	0.01796
3269.13636	0.01789
3267.07641	0.01786
3265.01647	0.01786
3262.95652	0.01778
3260.89657	0.01769
3258.83662	0.01764
3256.77668	0.01759
3254.71673	0.01759
3252.65678	0.01763
3250.59683	0.01768
3248.53689	0.01774
3246.47694	0.01774
3244.41699	0.01768
3242.35705	0.01763
3240.29710	0.01756
3238.23715	0.01749
3236.17720	0.01747
3234.11726	0.01745
3232.05731	0.01742
3229.99736	0.01741
3227.93741	0.01746
3225.87747	0.01748
3223.81752	0.01747
3221.75757	0.01747
3219.69763	0.01751
3217.63768	0.01749
3215.57773	0.01742
3213.51778	0.01738
3211.45784	0.01738
3209.39789	0.01738
3207.33794	0.01731
3205.27799	0.01727
3203.21805	0.01732
3201.15810	0.01731
3199.09815	0.01725
3197.03821	0.01725
3194.97826	0.01722
3192.91831	0.01708
3190.85836	0.01698
3188.79842	0.01699
3186.73847	0.01703
3184.67852	0.01708
3182.61857	0.01717
3180.55863	0.01725
3178.49868	0.01730
3176.43873	0.01723
3174.37878	0.01708
3172.31884	0.01700
3170.25889	0.01698
3168.19894	0.01700
3166.13900	0.01703
3164.07905	0.01701
3162.01910	0.01696
3159.95915	0.01693
3157.89921	0.01688
3155.83926	0.01681
3153.77931	0.01677
3151.71936	0.01677
3149.65942	0.01678
3147.59947	0.01673
3145.53952	0.01662
3143.47958	0.01659
3141.41963	0.01662
3139.35968	0.01666
3137.29973	0.01669
3135.23979	0.01668
3133.17984	0.01663
3131.11989	0.01657
3129.05994	0.01654
3127.00000	0.01655
3124.94005	0.01653
3122.88010	0.01649
3120.82016	0.01651
3118.76021	0.01662
3116.70026	0.01668
3114.64031	0.01668
3112.58037	0.01664
3110.52042	0.01657
3108.46047	0.01654
3106.40052	0.01647
3104.34058	0.01638
3102.28063	0.01636
3100.22068	0.01638
3098.16073	0.01636
3096.10079	0.01635
3094.04084	0.01636
3091.98089	0.01638
3089.92095	0.01638
3087.86100	0.01635
3085.80105	0.01635
3083.74110	0.01635
3081.68116	0.01631
3079.62121	0.01628
3077.56126	0.01627
3075.50131	0.01626
3073.44137	0.01624
3071.38142	0.01618
3069.32147	0.01613
3067.26153	0.01608
3065.20158	0.01603
3063.14163	0.01602
3061.08168	0.01602
3059.02174	0.01599
3056.96179	0.01600
3054.90184	0.01603
3052.84189	0.01606
3050.78195	0.01611
3048.72200	0.01609
3046.66205	0.01600
3044.60211	0.01593
3042.54216	0.01589
3040.48221	0.01585
3038.42226	0.01584
3036.36232	0.01586
3034.30237	0.01587
3032.24242	0.01593
3030.18247	0.01599
3028.12253	0.01600
3026.06258	0.01596
3024.00263	0.01590
3021.94268	0.01587
3019.88274	0.01585
3017.82279	0.01579
3015.76284	0.01576
3013.70290	0.01580
3011.64295	0.01582
3009.58300	0.01581
3007.52305	0.01580
3005.46311	0.01575
3003.40316	0.01570
3001.34321	0.01567
2999.28326	0.01571
2997.22332	0.01575
2995.16337	0.01572
2993.10342	0.01566
2991.04348	0.01563
2988.98353	0.01562
2986.92358	0.01563
2984.86363	0.01568
2982.80369	0.01571
2980.74374	0.01572
2978.68379	0.01574
2976.62384	0.01574
2974.56390	0.01574
2972.50395	0.01576
2970.44400	0.01580
2968.38406	0.01585
2966.32411	0.01589
2964.26416	0.01591
2962.20421	0.01593
2960.14427	0.01590
2958.08432	0.01580
2956.02437	0.01579
2953.96442	0.01587
2951.90448	0.01592
2949.84453	0.01590
2947.78458	0.01588
2945.72463	0.01589
2943.66469	0.01591
2941.60474	0.01591
2939.54479	0.01594
2937.48485	0.01605
2935.42490	0.01614
2933.36495	0.01615
2931.30500	0.01610
2929.24506	0.01607
2927.18511	0.01614
2925.12516	0.01626
2923.06521	0.01634
2921.00527	0.01634
2918.94532	0.01630
2916.88537	0.01624
2914.82543	0.01615
2912.76548	0.01609
2910.70553	0.01600
2908.64558	0.01588
2906.58564	0.01581
2904.52569	0.01582
2902.46574	0.01582
2900.40579	0.01572
2898.34585	0.01563
2896.28590	0.01560
2894.22595	0.01559
2892.16601	0.01557
2890.10606	0.01553
2888.04611	0.01551
2885.98616	0.01554
2883.92622	0.01554
2881.86627	0.01548
2879.80632	0.01543
2877.74637	0.01541
2875.68643	0.01538
2873.62648	0.01536
2871.56653	0.01537
2869.50658	0.01541
2867.44664	0.01545
2865.38669	0.01544
2863.32674	0.01541
2861.26680	0.01541
2859.20685	0.01542
2857.14690	0.01546
2855.08695	0.01553
2853.02701	0.01560
2850.96706	0.01566
2848.90711	0.01564
2846.84716	0.01553
2844.78722	0.01542
2842.72727	0.01536
2840.66732	0.01529
2838.60738	0.01519
2836.54743	0.01511
2834.48748	0.01506
2832.42753	0.01499
2830.36759	0.01492
2828.30764	0.01492
2826.24769	0.01496
2824.18774	0.01493
2822.12780	0.01487
2820.06785	0.01487
2818.00790	0.01489
2815.94796	0.01490
2813.88801	0.01486
2811.82806	0.01478
2809.76811	0.01474
2807.70817	0.01473
2805.64822	0.01474
2803.58827	0.01476
2801.52832	0.01477
2799.46838	0.01477
2797.40843	0.01475
2795.34848	0.01471
2793.28853	0.01464
2791.22859	0.01459
2789.16864	0.01460
2787.10869	0.01461
2785.04875	0.01462
2782.98880	0.01466
2780.92885	0.01467
2778.86890	0.01467
2776.80896	0.01468
2774.74901	0.01468
2772.68906	0.01465
2770.62911	0.01458
2768.56917	0.01450
2766.50922	0.01449
2764.44927	0.01454
2762.38933	0.01452
2760.32938	0.01445
2758.26943	0.01442
2756.20948	0.01444
2754.14954	0.01444
2752.08959	0.01445
2750.02964	0.01445
2747.96969	0.01442
2745.90975	0.01440
2743.84980	0.01441
2741.78985	0.01440
2739.72991	0.01440
2737.66996	0.01442
2735.61001	0.01443
2733.55006	0.01443
2731.49012	0.01440
2729.43017	0.01437
2727.37022	0.01438
2725.31027	0.01441
2723.25033	0.01442
2721.19038	0.01440
2719.13043	0.01434
2717.07048	0.01432
2715.01054	0.01434
2712.95059	0.01434
2710.89064	0.01430
2708.83070	0.01425
2706.77075	0.01425
2704.71080	0.01429
2702.65085	0.01432
2700.59091	0.01428
2698.53096	0.01420
2696.47101	0.01417
2694.41106	0.01420
2692.35112	0.01420
2690.29117	0.01419
2688.23122	0.01419
2686.17128	0.01420
2684.11133	0.01421
2682.05138	0.01422
2679.99143	0.01424
2677.93149	0.01424
2675.87154	0.01418
2673.81159	0.01410
2671.75164	0.01410
2669.69170	0.01418
2667.63175	0.01430
2665.57180	0.01444
2663.51186	0.01454
2661.45191	0.01466
2659.39196	0.01483
2657.33201	0.01494
2655.27207	0.01496
2653.21212	0.01495
2651.15217	0.01494
2649.09222	0.01492
2647.03228	0.01491
2644.97233	0.01490
2642.91238	0.01488
2640.85243	0.01483
2638.79249	0.01477
2636.73254	0.01470
2634.67259	0.01463
2632.61265	0.01457
2630.55270	0.01452
2628.49275	0.01450
2626.43280	0.01447
2624.37286	0.01442
2622.31291	0.01437
2620.25296	0.01428
2618.19301	0.01415
2616.13307	0.01411
2614.07312	0.01411
2612.01317	0.01405
2609.95323	0.01393
2607.89328	0.01386
2605.83333	0.01387
2603.77338	0.01383
2601.71344	0.01373
2599.65349	0.01367
2597.59354	0.01367
2595.53359	0.01364
2593.47365	0.01355
2591.41370	0.01350
2589.35375	0.01347
2587.29381	0.01344
2585.23386	0.01345
2583.17391	0.01340
2581.11396	0.01327
2579.05402	0.01319
2576.99407	0.01321
2574.93412	0.01324
2572.87417	0.01324
2570.81423	0.01318
2568.75428	0.01306
2566.69433	0.01299
2564.63438	0.01301
2562.57444	0.01300
2560.51449	0.01300
2558.45454	0.01304
2556.39460	0.01298
2554.33465	0.01281
2552.27470	0.01268
2550.21475	0.01263
2548.15481	0.01263
2546.09486	0.01265
2544.03491	0.01268
2541.97496	0.01266
2539.91502	0.01261
2537.85507	0.01261
2535.79512	0.01263
2533.73518	0.01256
2531.67523	0.01249
2529.61528	0.01251
2527.55533	0.01255
2525.49539	0.01252
2523.43544	0.01246
2521.37549	0.01244
2519.31554	0.01242
2517.25560	0.01242
2515.19565	0.01244
2513.13570	0.01235
2511.07576	0.01229
2509.01581	0.01237
2506.95586	0.01241
2504.89591	0.01237
2502.83597	0.01236
2500.77602	0.01242
2498.71607	0.01245
2496.65612	0.01240
2494.59618	0.01232
2492.53623	0.01226
2490.47628	0.01221
2488.41633	0.01220
2486.35639	0.01223
2484.29644	0.01221
2482.23649	0.01222
2480.17655	0.01230
2478.11660	0.01232
2476.05665	0.01221
2473.99670	0.01209
2471.93676	0.01205
2469.87681	0.01211
2467.81686	0.01219
2465.75691	0.01224
2463.69697	0.01222
2461.63702	0.01221
2459.57707	0.01232
2457.51713	0.01248
2455.45718	0.01251
2453.39723	0.01245
2451.33728	0.01236
2449.27734	0.01226
2447.21739	0.01221
2445.15744	0.01219
2443.09749	0.01218
2441.03755	0.01210
2438.97760	0.01200
2436.91765	0.01203
2434.85771	0.01205
2432.79776	0.01194
2430.73781	0.01180
2428.67786	0.01168
2426.61792	0.01156
2424.55797	0.01154
2422.49802	0.01161
2420.43807	0.01164
2418.37813	0.01160
2416.31818	0.01154
2414.25823	0.01149
2412.19828	0.01150
2410.13834	0.01146
2408.07839	0.01133
2406.01844	0.01115
2403.95850	0.01106
2401.89855	0.01109
2399.83860	0.01114
2397.77865	0.01114
2395.71871	0.01110
2393.65876	0.01106
2391.59881	0.01105
2389.53886	0.01103
2387.47892	0.01098
2385.41897	0.01097
2383.35902	0.01102
2381.29908	0.01103
2379.23913	0.01099
2377.17918	0.01096
2375.11923	0.01090
2373.05929	0.01075
2370.99934	0.01063
2368.93939	0.01054
2366.87944	0.01045
2364.81950	0.01046
2362.75955	0.01062
2360.69960	0.01082
2358.63966	0.01095
2356.57971	0.01102
2354.51976	0.01122
2352.45981	0.01156
2350.39987	0.01175
2348.33992	0.01170
2346.27997	0.01157
2344.22002	0.01143
2342.16008	0.01128
2340.10013	0.01119
2338.04018	0.01119
2335.98023	0.01116
2333.92029	0.01113
2331.86034	0.01129
2329.80039	0.01193
2327.74045	0.01320
2325.68050	0.01436
2323.62055	0.01446
2321.56060	0.01390
2319.50066	0.01345
2317.44071	0.01317
2315.38076	0.01300
2313.32081	0.01294
2311.26087	0.01291
2309.20092	0.01278
2307.14097	0.01264
2305.08103	0.01259
2303.02108	0.01262
2300.96113	0.01273
2298.90118	0.01280
2296.84124	0.01276
2294.78129	0.01285
2292.72134	0.01320
2290.66139	0.01354
2288.60145	0.01368
2286.54150	0.01358
2284.48155	0.01322
2282.42161	0.01278
2280.36166	0.01247
2278.30171	0.01229
2276.24176	0.01213
2274.18182	0.01195
2272.12187	0.01179
2270.06192	0.01171
2268.00197	0.01168
2265.94203	0.01160
2263.88208	0.01159
2261.82213	0.01174
2259.76218	0.01180
2257.70224	0.01157
2255.64229	0.01122
2253.58234	0.01100
2251.52240	0.01095
2249.46245	0.01101
2247.40250	0.01110
2245.34255	0.01115
2243.28261	0.01112
2241.22266	0.01105
2239.16271	0.01106
2237.10276	0.01104
2235.04282	0.01097
2232.98287	0.01104
2230.92292	0.01116
2228.86298	0.01116
2226.80303	0.01101
2224.74308	0.01074
2222.68313	0.01052
2220.62319	0.01036
2218.56324	0.01011
2216.50329	0.00987
2214.44334	0.00990
2212.38340	0.01015
2210.32345	0.01032
2208.26350	0.01025
2206.20356	0.01023
2204.14361	0.01023
2202.08366	0.01008
2200.02371	0.01004
2197.96377	0.01022
2195.90382	0.01037
2193.84387	0.01035
2191.78392	0.01036
2189.72398	0.01056
2187.66403	0.01070
2185.60408	0.01029
2183.54413	0.00943
2181.48419	0.00896
2179.42424	0.00899
2177.36429	0.00878
2175.30435	0.00843
2173.24440	0.00858
2171.18445	0.00927
2169.12450	0.01032
2167.06456	0.01129
2165.00461	0.01162
2162.94466	0.01053
2160.88471	0.00695
2158.82477	0.00291
2156.76482	0.00198
2154.70487	0.00334
2152.64493	0.00474
2150.58498	0.00540
2148.52503	0.00554
2146.46508	0.00563
2144.40514	0.00579
2142.34519	0.00590
2140.28524	0.00607
2138.22529	0.00610
2136.16535	0.00575
2134.10540	0.00569
2132.04545	0.00621
2129.98551	0.00678
2127.92556	0.00724
2125.86561	0.00769
2123.80566	0.00808
2121.74572	0.00836
2119.68577	0.00857
2117.62582	0.00897
2115.56587	0.00951
2113.50593	0.00980
2111.44598	0.00976
2109.38603	0.00972
2107.32608	0.00971
2105.26614	0.00959
2103.20619	0.00954
2101.14624	0.00964
2099.08630	0.00958
2097.02635	0.00910
2094.96640	0.00864
2092.90645	0.00867
2090.84651	0.00899
2088.78656	0.00937
2086.72661	0.00973
2084.66666	0.00993
2082.60672	0.01006
2080.54677	0.01029
2078.48682	0.01048
2076.42688	0.01031
2074.36693	0.00987
2072.30698	0.00961
2070.24703	0.00953
2068.18709	0.00951
2066.12714	0.00965
2064.06719	0.00982
2062.00724	0.00977
2059.94730	0.00969
2057.88735	0.00970
2055.82740	0.00971
2053.76746	0.01029
2051.70751	0.01113
2049.64756	0.01095
2047.58761	0.01021
2045.52767	0.00973
2043.46772	0.00942
2041.40777	0.00942
2039.34782	0.00961
2037.28788	0.00955
2035.22793	0.00908
2033.16798	0.00840
2031.10803	0.00787
2029.04809	0.00768
2026.98814	0.00771
2024.92819	0.00785
2022.86825	0.00788
2020.80830	0.00770
2018.74835	0.00768
2016.68840	0.00771
2014.62846	0.00773
2012.56851	0.00796
2010.50856	0.00810
2008.44861	0.00774
2006.38867	0.00735
2004.32872	0.00748
2002.26877	0.00787
2000.20883	0.00830
1998.14888	0.00868
1996.08893	0.00888
1994.02898	0.00888
1991.96904	0.00883
1989.90909	0.00910
1987.84914	0.00958
1985.78919	0.01005
1983.72925	0.01082
1981.66930	0.01149
1979.60935	0.01046
1977.54941	0.00820
1975.48946	0.00692
1973.42951	0.00690
1971.36956	0.00737
1969.30962	0.00760
1967.24967	0.00740
1965.18972	0.00727
1963.12977	0.00725
1961.06983	0.00695
1959.00988	0.00659
1956.94993	0.00670
1954.88998	0.00722
1952.83004	0.00783
1950.77009	0.00819
1948.71014	0.00816
1946.65020	0.00800
1944.59025	0.00803
1942.53030	0.00818
1940.47035	0.00815
1938.41041	0.00802
1936.35046	0.00803
1934.29051	0.00817
1932.23056	0.00832
1930.17062	0.00836
1928.11067	0.00829
1926.05072	0.00826
1923.99078	0.00847
1921.93083	0.00883
1919.87088	0.00903
1917.81093	0.00902
1915.75099	0.00901
1913.69104	0.00904
1911.63109	0.00905
1909.57114	0.00904
1907.51120	0.00912
1905.45125	0.00928
1903.39130	0.00944
1901.33136	0.00956
1899.27141	0.00967
1897.21146	0.00978
1895.15151	0.00992
1893.09157	0.01010
1891.03162	0.01029
1888.97167	0.01035
1886.91172	0.01022
1884.85178	0.01015
1882.79183	0.01021
1880.73188	0.01021
1878.67193	0.01013
1876.61199	0.01017
1874.55204	0.01032
1872.49209	0.01048
1870.43215	0.01068
1868.37220	0.01075
1866.31225	0.01056
1864.25230	0.01033
1862.19236	0.01023
1860.13241	0.01023
1858.07246	0.01025
1856.01251	0.01017
1853.95257	0.00996
1851.89262	0.00976
1849.83267	0.00969
1847.77273	0.00972
1845.71278	0.00983
1843.65283	0.00987
1841.59288	0.00974
1839.53294	0.00966
1837.47299	0.00969
1835.41304	0.00964
1833.35309	0.00953
1831.29315	0.00962
1829.23320	0.00979
1827.17325	0.00983
1825.11331	0.00990
1823.05336	0.00989
1820.99341	0.00966
1818.93346	0.00939
1816.87352	0.00927
1814.81357	0.00940
1812.75362	0.00968
1810.69367	0.00994
1808.63373	0.01006
1806.57378	0.01009
1804.51383	0.01019
1802.45388	0.01040
1800.39394	0.01053
1798.33399	0.01051
1796.27404	0.01052
1794.21410	0.01068
1792.15415	0.01083
1790.09420	0.01069
1788.03425	0.01046
1785.97431	0.01040
1783.91436	0.01044
1781.85441	0.01047
1779.79446	0.01046
1777.73452	0.01043
1775.67457	0.01055
1773.61462	0.01083
1771.55468	0.01096
1769.49473	0.01081
1767.43478	0.01056
1765.37483	0.01036
1763.31489	0.01039
1761.25494	0.01053
1759.19499	0.01058
1757.13504	0.01062
1755.07510	0.01060
1753.01515	0.01067
1750.95520	0.01107
1748.89526	0.01143
1746.83531	0.01146
1744.77536	0.01142
1742.71541	0.01142
1740.65547	0.01150
1738.59552	0.01155
1736.53557	0.01163
1734.47562	0.01200
1732.41568	0.01225
1730.35573	0.01206
1728.29578	0.01178
1726.23583	0.01164
1724.17589	0.01168
1722.11594	0.01174
1720.05599	0.01189
1717.99605	0.01240
1715.93610	0.01273
1713.87615	0.01249
1711.81620	0.01227
1709.75626	0.01225
1707.69631	0.01243
1705.63636	0.01271
1703.57641	0.01283
1701.51647	0.01302
1699.45652	0.01349
1697.39657	0.01370
1695.33663	0.01347
1693.27668	0.01317
1691.21673	0.01323
1689.15678	0.01358
1687.09684	0.01389
1685.03689	0.01440
1682.97694	0.01478
1680.91699	0.01450
1678.85705	0.01421
1676.79710	0.01420
1674.73715	0.01442
1672.67721	0.01463
1670.61726	0.01486
1668.55731	0.01496
1666.49736	0.01478
1664.43742	0.01476
1662.37747	0.01496
1660.31752	0.01502
1658.25757	0.01499
1656.19763	0.01512
1654.13768	0.01557
1652.07773	0.01601
1650.01778	0.01600
1647.95784	0.01615
1645.89789	0.01628
1643.83794	0.01600
1641.77800	0.01577
1639.71805	0.01582
1637.65810	0.01621
1635.59815	0.01668
1633.53821	0.01658
1631.47826	0.01631
1629.41831	0.01633
1627.35836	0.01651
1625.29842	0.01670
1623.23847	0.01691
1621.17852	0.01696
1619.11858	0.01697
1617.05863	0.01715
1614.99868	0.01713
1612.93873	0.01692
1610.87879	0.01684
1608.81884	0.01683
1606.75889	0.01674
1604.69894	0.01660
1602.63900	0.01653
1600.57905	0.01648
1598.51910	0.01641
1596.45916	0.01636
1594.39921	0.01629
1592.33926	0.01617
1590.27931	0.01605
1588.21937	0.01595
1586.15942	0.01590
1584.09947	0.01584
1582.03952	0.01577
1579.97958	0.01574
1577.91963	0.01587
1575.85968	0.01599
1573.79973	0.01577
1571.73979	0.01557
1569.67984	0.01559
1567.61989	0.01550
1565.55995	0.01533
1563.50000	0.01521
1561.44005	0.01526
1559.38010	0.01582
1557.32016	0.01594
1555.26021	0.01534
1553.20026	0.01491
1551.14031	0.01475
1549.08037	0.01467
1547.02042	0.01466
1544.96047	0.01490
1542.90053	0.01529
1540.84058	0.01553
1538.78063	0.01511
1536.72068	0.01458
1534.66074	0.01451
1532.60079	0.01459
1530.54084	0.01443
1528.48089	0.01442
1526.42095	0.01460
1524.36100	0.01467
1522.30105	0.01473
1520.24111	0.01473
1518.18116	0.01462
1516.12121	0.01440
1514.06126	0.01408
1512.00132	0.01400
1509.94137	0.01435
1507.88142	0.01486
1505.82147	0.01443
1503.76153	0.01361
1501.70158	0.01329
1499.64163	0.01330
1497.58168	0.01339
1495.52174	0.01322
1493.46179	0.01302
1491.40184	0.01320
1489.34190	0.01349
1487.28195	0.01320
1485.22200	0.01273
1483.16205	0.01254
1481.10211	0.01254
1479.04216	0.01257
1476.98221	0.01274
1474.92226	0.01313
1472.86232	0.01340
1470.80237	0.01319
1468.74242	0.01289
1466.68248	0.01290
1464.62253	0.01304
1462.56258	0.01301
1460.50263	0.01309
1458.44269	0.01356
1456.38274	0.01384
1454.32279	0.01343
1452.26284	0.01304
1450.20290	0.01294
1448.14295	0.01300
1446.08300	0.01290
1444.02306	0.01270
1441.96311	0.01262
1439.90316	0.01273
1437.84321	0.01303
1435.78327	0.01326
1433.72332	0.01316
1431.66337	0.01310
1429.60342	0.01315
1427.54348	0.01313
1425.48353	0.01316
1423.42358	0.01327
1421.36363	0.01339
1419.30369	0.01364
1417.24374	0.01365
1415.18379	0.01334
1413.12385	0.01315
1411.06390	0.01311
1409.00395	0.01308
1406.94400	0.01313
1404.88406	0.01322
1402.82411	0.01322
1400.76416	0.01331
1398.70421	0.01357
1396.64427	0.01374
1394.58432	0.01364
1392.52437	0.01334
1390.46443	0.01317
1388.40448	0.01328
1386.34453	0.01335
1384.28458	0.01321
1382.22464	0.01314
1380.16469	0.01325
1378.10474	0.01338
1376.04479	0.01347
1373.98485	0.01348
1371.92490	0.01336
1369.86495	0.01327
1367.80501	0.01323
1365.74506	0.01323
1363.68511	0.01339
1361.62516	0.01347
1359.56522	0.01325
1357.50527	0.01305
1355.44532	0.01295
1353.38537	0.01288
1351.32543	0.01283
1349.26548	0.01280
1347.20553	0.01279
1345.14558	0.01280
1343.08564	0.01287
1341.02569	0.01310
1338.96574	0.01328
1336.90580	0.01318
1334.84585	0.01294
1332.78590	0.01274
1330.72595	0.01265
1328.66601	0.01267
1326.60606	0.01274
1324.54611	0.01280
1322.48616	0.01288
1320.42622	0.01301
1318.36627	0.01311
1316.30632	0.01312
1314.24638	0.01312
1312.18643	0.01312
1310.12648	0.01311
1308.06653	0.01316
1306.00659	0.01323
1303.94664	0.01331
1301.88669	0.01342
1299.82674	0.01356
1297.76680	0.01370
1295.70685	0.01381
1293.64690	0.01393
1291.58696	0.01413
1289.52701	0.01436
1287.46706	0.01457
1285.40711	0.01477
1283.34717	0.01499
1281.28722	0.01521
1279.22727	0.01536
1277.16732	0.01549
1275.10738	0.01567
1273.04743	0.01587
1270.98748	0.01608
1268.92753	0.01624
1266.86759	0.01636
1264.80764	0.01650
1262.74769	0.01667
1260.68775	0.01687
1258.62780	0.01706
1256.56785	0.01726
1254.50790	0.01755
1252.44796	0.01793
1250.38801	0.01836
1248.32806	0.01882
1246.26811	0.01928
1244.20817	0.01973
1242.14822	0.02019
1240.08827	0.02067
1238.02833	0.02116
1235.96838	0.02169
1233.90843	0.02227
1231.84848	0.02293
1229.78854	0.02368
1227.72859	0.02454
1225.66864	0.02558
1223.60869	0.02690
1221.54875	0.02850
1219.48880	0.03030
1217.42885	0.03219
1215.36891	0.03416
1213.30896	0.03620
1211.24901	0.03821
1209.18906	0.04018
1207.12912	0.04211
1205.06917	0.04395
1203.00922	0.04567
1200.94927	0.04732
1198.88933	0.04890
1196.82938	0.05039
1194.76943	0.05181
1192.70949	0.05320
1190.64954	0.05458
1188.58959	0.05597
1186.52964	0.05735
1184.46970	0.05871
1182.40975	0.06019
1180.34980	0.06189
1178.28985	0.06381
1176.22991	0.06592
1174.16996	0.06828
1172.11001	0.07094
1170.05006	0.07389
1167.99012	0.07698
1165.93017	0.07995
1163.87022	0.08212
1161.81028	0.08258
1159.75033	0.08122
1157.69038	0.07933
1155.63043	0.07834
1153.57049	0.07867
1151.51054	0.07993
1149.45059	0.08165
1147.39064	0.08359
1145.33070	0.08564
1143.27075	0.08778
1141.21080	0.08996
1139.15086	0.09220
1137.09091	0.09463
1135.03096	0.09726
1132.97101	0.10002
1130.91107	0.10286
1128.85112	0.10580
1126.79117	0.10881
1124.73122	0.11192
1122.67128	0.11517
1120.61133	0.11853
1118.55138	0.12190
1116.49144	0.12532
1114.43149	0.12883
1112.37154	0.13239
1110.31159	0.13599
1108.25165	0.13968
1106.19170	0.14349
1104.13175	0.14743
1102.07180	0.15150
1100.01186	0.15573
1097.95191	0.16006
1095.89196	0.16433
1093.83201	0.16850
1091.77207	0.17259
1089.71212	0.17652
1087.65217	0.18017
1085.59223	0.18344
1083.53228	0.18617
1081.47233	0.18830
1079.41238	0.18988
1077.35244	0.19085
1075.29249	0.19115
1073.23254	0.19088
1071.17259	0.19030
1069.11265	0.18978
1067.05270	0.18953
1064.99275	0.18948
1062.93281	0.18931
1060.87286	0.18873
1058.81291	0.18760
1056.75296	0.18605
1054.69302	0.18424
1052.63307	0.18222
1050.57312	0.18011
1048.51317	0.17801
1046.45323	0.17599
1044.39328	0.17417
1042.33333	0.17264
1040.27339	0.17125
1038.21344	0.16979
1036.15349	0.16820
1034.09354	0.16653
1032.03360	0.16477
1029.97365	0.16294
1027.91370	0.16114
1025.85375	0.15936
1023.79381	0.15758
1021.73386	0.15583
1019.67391	0.15417
1017.61396	0.15263
1015.55402	0.15116
1013.49407	0.14970
1011.43412	0.14823
1009.37418	0.14678
1007.31423	0.14531
1005.25428	0.14375
1003.19433	0.14209
1001.13439	0.14040
999.07444	0.13875
997.01449	0.13707
994.95454	0.13532
992.89460	0.13358
990.83465	0.13187
988.77470	0.13015
986.71476	0.12843
984.65481	0.12667
982.59486	0.12490
980.53491	0.12315
978.47497	0.12136
976.41502	0.11946
974.35507	0.11758
972.29512	0.11580
970.23518	0.11408
968.17523	0.11238
966.11528	0.11070
964.05534	0.10900
961.99539	0.10726
959.93544	0.10554
957.87549	0.10392
955.81555	0.10235
953.75560	0.10076
951.69565	0.09922
949.63570	0.09780
947.57576	0.09644
945.51581	0.09509
943.45586	0.09373
941.39591	0.09235
939.33597	0.09096
937.27602	0.08956
935.21607	0.08813
933.15613	0.08675
931.09618	0.08542
929.03623	0.08410
926.97628	0.08282
924.91634	0.08157
922.85639	0.08036
920.79644	0.07922
918.73649	0.07811
916.67655	0.07700
914.61660	0.07588
912.55665	0.07472
910.49671	0.07342
908.43676	0.07200
906.37681	0.07057
904.31686	0.06918
902.25692	0.06776
900.19697	0.06630
898.13702	0.06490
896.07707	0.06356
894.01713	0.06225
891.95718	0.06095
889.89723	0.05968
887.83729	0.05848
885.77734	0.05730
883.71739	0.05611
881.65744	0.05493
879.59750	0.05375
877.53755	0.05255
875.47760	0.05139
873.41765	0.05028
871.35771	0.04918
869.29776	0.04799
867.23781	0.04685
865.17786	0.04586
863.11792	0.04488
861.05797	0.04384
858.99802	0.04276
856.93808	0.04169
854.87813	0.04073
852.81818	0.03981
850.75823	0.03897
848.69829	0.03827
846.63834	0.03758
844.57839	0.03689
842.51844	0.03629
840.45850	0.03582
838.39855	0.03546
836.33860	0.03516
834.27866	0.03487
832.21871	0.03468
830.15876	0.03462
828.09881	0.03465
826.03887	0.03489
823.97892	0.03536
821.91897	0.03606
819.85902	0.03714
817.79908	0.03876
815.73913	0.04103
813.67918	0.04423
811.61924	0.04903
809.55929	0.05608
807.49934	0.06572
805.43939	0.07758
803.37945	0.09042
801.31950	0.10260
799.25955	0.11235
797.19960	0.11785
795.13966	0.11864
793.07971	0.11638
791.01976	0.11354
788.95981	0.11208
786.89987	0.11315
784.83992	0.11722
782.77997	0.12369
780.72003	0.13045
778.66008	0.13468
776.60013	0.13469
774.54018	0.13076
772.48024	0.12456
770.42029	0.11782
768.36034	0.11152
766.30039	0.10591
764.24045	0.10092
762.18050	0.09646
760.12055	0.09247
758.06061	0.08879
756.00066	0.08532
753.94071	0.08217
751.88076	0.07941
749.82082	0.07689
747.76087	0.07452
745.70092	0.07233
743.64097	0.07027
741.58103	0.06834
739.52108	0.06657
737.46113	0.06497
735.40119	0.06348
733.34124	0.06209
731.28129	0.06082
729.22134	0.05960
727.16140	0.05843
725.10145	0.05737
723.04150	0.05641
720.98155	0.05544
718.92161	0.05452
716.86166	0.05379
714.80171	0.05327
712.74176	0.05289
710.68182	0.05266
708.62187	0.05275
706.56192	0.05335
704.50198	0.05482
702.44203	0.05780
700.38208	0.06306
698.32213	0.07048
696.26219	0.07766
694.20224	0.08065
692.14229	0.07823
690.08234	0.07304
688.02240	0.06779
685.96245	0.06328
683.90250	0.05964
681.84256	0.05682
679.78261	0.05447
677.72266	0.05241
675.66271	0.05072
673.60277	0.04929
671.54282	0.04800
669.48287	0.04686
667.42292	0.04582
665.36298	0.04489
663.30303	0.04400
661.24308	0.04323
659.18314	0.04257
657.12319	0.04188
655.06324	0.04134
653.00329	0.04102
650.94335	0.04068
648.88340	0.04026
646.82345	0.03980
644.76350	0.03934
642.70356	0.03880
640.64361	0.03821
638.58366	0.03773
636.52371	0.03726
634.46377	0.03665
632.40382	0.03608
630.34387	0.03571
628.28393	0.03550
626.22398	0.03530
624.16403	0.03497
622.10408	0.03454
620.04414	0.03428
617.98419	0.03413
615.92424	0.03401
613.86429	0.03395
611.80435	0.03385
609.74440	0.03383
607.68445	0.03398
605.62451	0.03399
603.56456	0.03389
601.50461	0.03389
599.44466	0.03385
597.38472	0.03366
595.32477	0.03351
593.26482	0.03359
591.20487	0.03371
589.14493	0.03373
587.08498	0.03388
585.02503	0.03396
582.96509	0.03385
580.90514	0.03382
578.84519	0.03381
576.78524	0.03386
574.72530	0.03400
572.66535	0.03398
570.60540	0.03388
568.54545	0.03389
566.48551	0.03405
564.42556	0.03430
562.36561	0.03455
560.30566	0.03493
558.24572	0.03544
556.18577	0.03604
554.12582	0.03698
552.06588	0.03854
550.00593	0.04073
547.94598	0.04353
545.88603	0.04678
543.82609	0.05046
541.76614	0.05481
539.70619	0.05984
537.64624	0.06523
535.58630	0.07093
533.52635	0.07661
531.46640	0.08186
529.40646	0.08674
527.34651	0.09144
525.28656	0.09586
523.22661	0.09943
521.16667	0.10210
519.10672	0.10409
517.04677	0.10507
514.98682	0.10474
512.92688	0.10343
510.86693	0.10154
508.80698	0.09962
506.74704	0.09876
504.68709	0.09981
502.62714	0.10307
500.56719	0.10790
498.50725	0.11324
496.44730	0.11888
494.38735	0.12468
492.32740	0.13072
490.26746	0.13689
488.20751	0.14274
486.14756	0.14871
484.08761	0.15526
482.02767	0.16220
479.96772	0.16934
477.90777	0.17666
475.84783	0.18410
473.78788	0.19197
471.72793	0.20045
469.66798	0.20856
467.60804	0.21639
465.54809	0.22406
463.48814	0.23087
461.42819	0.23653
459.36825	0.24100
457.30830	0.24419
455.24835	0.24452
453.18841	0.24246
451.12846	0.23936
449.06851	0.23521
447.00856	0.22973
444.94862	0.22364
442.88867	0.21759
440.82872	0.21132
438.76877	0.20577
436.70883	0.20138
434.64888	0.19723
432.58893	0.19256
430.52899	0.18730
428.46904	0.18169
426.40909	0.17599
424.34914	0.17069
422.28920	0.16610
420.22925	0.16099
418.16930	0.15322
416.10935	0.14443
414.04941	0.13527
411.98946	0.12517
409.92951	0.11548
407.86956	0.10807
405.80962	0.10577
403.74967	0.11143
401.68972	0.12627
399.62978	0.15076
