3996.29776	0.04808
3994.23781	0.04799
3992.17786	0.04789
3990.11791	0.04794
3988.05797	0.04799
3985.99802	0.04793
3983.93807	0.04787
3981.87813	0.04786
3979.81818	0.04783
3977.75823	0.04774
3975.69828	0.04771
3973.63834	0.04773
3971.57839	0.04767
3969.51844	0.04762
3967.45849	0.04774
3965.39855	0.04779
3963.33860	0.04771
3961.27865	0.04767
3959.21870	0.04762
3957.15876	0.04756
3955.09881	0.04751
3953.03886	0.04734
3950.97892	0.04728
3948.91897	0.04756
3946.85902	0.04775
3944.79907	0.04765
3942.73913	0.04777
3940.67918	0.04796
3938.61923	0.04777
3936.55928	0.04743
3934.49934	0.04717
3932.43939	0.04734
3930.37944	0.04769
3928.31950	0.04755
3926.25955	0.04724
3924.19960	0.04735
3922.13965	0.04735
3920.07971	0.04705
3918.01976	0.04722
3915.95981	0.04774
3913.89986	0.04772
3911.83992	0.04732
3909.77997	0.04690
3907.72002	0.04637
3905.66008	0.04615
3903.60013	0.04681
3901.54018	0.04776
3899.48023	0.04835
3897.42029	0.04822
3895.36034	0.04730
3893.30039	0.04662
3891.24044	0.04701
3889.18050	0.04709
3887.12055	0.04663
3885.06060	0.04693
3883.00065	0.04713
3880.94071	0.04726
3878.88076	0.04760
3876.82081	0.04701
3874.76087	0.04644
3872.70092	0.04641
3870.64097	0.04686
3868.58102	0.04752
3866.52108	0.04724
3864.46113	0.04711
3862.40118	0.04758
3860.34123	0.04733
3858.28129	0.04629
3856.22134	0.04513
3854.16139	0.04585
3852.10145	0.04846
3850.04150	0.04843
3847.98155	0.04705
3845.92160	0.04610
3843.86166	0.04586
3841.80171	0.04589
3839.74176	0.04611
3837.68181	0.04697
3835.62187	0.04748
3833.56192	0.04723
3831.50197	0.04705
3829.44203	0.04674
3827.38208	0.04633
3825.32213	0.04594
3823.26218	0.04549
3821.20224	0.04621
3819.14229	0.04695
3817.08234	0.04663
3815.02239	0.04705
3812.96245	0.04699
3810.90250	0.04593
3808.84255	0.04524
3806.78260	0.04573
3804.72266	0.04602
3802.66271	0.04605
3800.60276	0.04698
3798.54282	0.04712
3796.48287	0.04683
3794.42292	0.04679
3792.36297	0.04638
3790.30303	0.04587
3788.24308	0.04556
3786.18313	0.04563
3784.12318	0.04587
3782.06324	0.04565
3780.00329	0.04558
3777.94334	0.04607
3775.88340	0.04604
3773.82345	0.04545
3771.76350	0.04519
3769.70355	0.04574
3767.64361	0.04616
3765.58366	0.04610
3763.52371	0.04584
3761.46376	0.04523
3759.40382	0.04515
3757.34387	0.04546
3755.28392	0.04502
3753.22398	0.04436
3751.16403	0.04519
3749.10408	0.04648
3747.04413	0.04586
3744.98419	0.04568
3742.92424	0.04675
3740.86429	0.04634
3738.80434	0.04509
3736.74440	0.04471
3734.68445	0.04569
3732.62450	0.04667
3730.56455	0.04653
3728.50461	0.04575
3726.44466	0.04537
3724.38471	0.04550
3722.32477	0.04558
3720.26482	0.04560
3718.20487	0.04537
3716.14492	0.04478
3714.08498	0.04426
3712.02503	0.04486
3709.96508	0.04616
3707.90513	0.04632
3705.84519	0.04565
3703.78524	0.04515
3701.72529	0.04552
3699.66535	0.04595
3697.60540	0.04577
3695.54545	0.04541
3693.48550	0.04489
3691.42556	0.04456
3689.36561	0.04549
3687.30566	0.04666
3685.24571	0.04636
3683.18577	0.04544
3681.12582	0.04475
3679.06587	0.04415
3677.00593	0.04420
3674.94598	0.04590
3672.88603	0.04641
3670.82608	0.04612
3668.76614	0.04684
3666.70619	0.04669
3664.64624	0.04582
3662.58629	0.04538
3660.52635	0.04512
3658.46640	0.04483
3656.40645	0.04512
3654.34651	0.04515
3652.28656	0.04428
3650.22661	0.04461
3648.16666	0.04695
3646.10672	0.04771
3644.04677	0.04684
3641.98682	0.04607
3639.92687	0.04585
3637.86693	0.04579
3635.80698	0.04577
3633.74703	0.04568
3631.68708	0.04523
3629.62714	0.04566
3627.56719	0.04746
3625.50724	0.04753
3623.44730	0.04642
3621.38735	0.04576
3619.32740	0.04629
3617.26745	0.04701
3615.20751	0.04679
3613.14756	0.04650
3611.08761	0.04647
3609.02766	0.04668
3606.96772	0.04709
3604.90777	0.04694
3602.84782	0.04645
3600.78788	0.04634
3598.72793	0.04646
3596.66798	0.04655
3594.60803	0.04676
3592.54809	0.04666
3590.48814	0.04607
3588.42819	0.04616
3586.36824	0.04720
3584.30830	0.04735
3582.24835	0.04681
3580.18840	0.04659
3578.12846	0.04664
3576.06851	0.04671
3574.00856	0.04673
3571.94861	0.04650
3569.88867	0.04613
3567.82872	0.04658
3565.76877	0.04772
3563.70882	0.04789
3561.64888	0.04751
3559.58893	0.04737
3557.52898	0.04722
3555.46903	0.04693
3553.40909	0.04691
3551.34914	0.04711
3549.28919	0.04705
3547.22925	0.04712
3545.16930	0.04756
3543.10935	0.04769
3541.04940	0.04748
3538.98946	0.04735
3536.92951	0.04746
3534.86956	0.04757
3532.80961	0.04746
3530.74967	0.04732
3528.68972	0.04744
3526.62977	0.04769
3524.56983	0.04789
3522.50988	0.04809
3520.44993	0.04814
3518.38998	0.04806
3516.33004	0.04800
3514.27009	0.04790
3512.21014	0.04778
3510.15019	0.04789
3508.09025	0.04806
3506.03030	0.04795
3503.97035	0.04793
3501.91041	0.04819
3499.85046	0.04826
3497.79051	0.04814
3495.73056	0.04814
3493.67062	0.04819
3491.61067	0.04817
3489.55072	0.04819
3487.49077	0.04834
3485.43083	0.04843
3483.37088	0.04846
3481.31093	0.04857
3479.25098	0.04862
3477.19104	0.04857
3475.13109	0.04859
3473.07114	0.04863
3471.01120	0.04862
3468.95125	0.04857
3466.89130	0.04853
3464.83135	0.04853
3462.77141	0.04854
3460.71146	0.04861
3458.65151	0.04873
3456.59156	0.04877
3454.53162	0.04872
3452.47167	0.04867
3450.41172	0.04865
3448.35178	0.04876
3446.29183	0.04895
3444.23188	0.04899
3442.17193	0.04895
3440.11199	0.04902
3438.05204	0.04903
3435.99209	0.04896
3433.93214	0.04894
3431.87220	0.04893
3429.81225	0.04889
3427.75230	0.04890
3425.69236	0.04894
3423.63241	0.04894
3421.57246	0.04901
3419.51251	0.04922
3417.45257	0.04932
3415.39262	0.04920
3413.33267	0.04914
3411.27272	0.04921
3409.21278	0.04921
3407.15283	0.04913
3405.09288	0.04911
3403.03293	0.04916
3400.97299	0.04924
3398.91304	0.04931
3396.85309	0.04930
3394.79315	0.04923
3392.73320	0.04925
3390.67325	0.04935
3388.61330	0.04932
3386.55336	0.04925
3384.49341	0.04932
3382.43346	0.04938
3380.37351	0.04933
3378.31357	0.04927
3376.25362	0.04922
3374.19367	0.04920
3372.13373	0.04917
3370.07378	0.04911
3368.01383	0.04911
3365.95388	0.04919
3363.89394	0.04928
3361.83399	0.04931
3359.77404	0.04925
3357.71409	0.04916
3355.65415	0.04912
3353.59420	0.04914
3351.53425	0.04918
3349.47431	0.04919
3347.41436	0.04916
3345.35441	0.04916
3343.29446	0.04919
3341.23452	0.04916
3339.17457	0.04910
3337.11462	0.04910
3335.05467	0.04913
3332.99473	0.04912
3330.93478	0.04910
3328.87483	0.04901
3326.81488	0.04892
3324.75494	0.04890
3322.69499	0.04890
3320.63504	0.04886
3318.57510	0.04883
3316.51515	0.04884
3314.45520	0.04882
3312.39525	0.04880
3310.33531	0.04883
3308.27536	0.04885
3306.21541	0.04883
3304.15546	0.04876
3302.09552	0.04869
3300.03557	0.04868
3297.97562	0.04865
3295.91568	0.04857
3293.85573	0.04853
3291.79578	0.04854
3289.73583	0.04850
3287.67589	0.04845
3285.61594	0.04843
3283.55599	0.04838
3281.49604	0.04831
3279.43610	0.04829
3277.37615	0.04835
3275.31620	0.04842
3273.25626	0.04844
3271.19631	0.04846
3269.13636	0.04842
3267.07641	0.04828
3265.01647	0.04813
3262.95652	0.04805
3260.89657	0.04800
3258.83662	0.04794
3256.77668	0.04785
3254.71673	0.04775
3252.65678	0.04773
3250.59683	0.04776
3248.53689	0.04781
3246.47694	0.04782
3244.41699	0.04780
3242.35705	0.04776
3240.29710	0.04765
3238.23715	0.04754
3236.17720	0.04748
3234.11726	0.04744
3232.05731	0.04745
3229.99736	0.04751
3227.93741	0.04750
3225.87747	0.04744
3223.81752	0.04739
3221.75757	0.04738
3219.69763	0.04740
3217.63768	0.04736
3215.57773	0.04724
3213.51778	0.04712
3211.45784	0.04707
3209.39789	0.04706
3207.33794	0.04702
3205.27799	0.04696
3203.21805	0.04692
3201.15810	0.04687
3199.09815	0.04677
3197.03821	0.04669
3194.97826	0.04661
3192.91831	0.04652
3190.85836	0.04643
3188.79842	0.04637
3186.73847	0.04635
3184.67852	0.04642
3182.61857	0.04650
3180.55863	0.04651
3178.49868	0.04647
3176.43873	0.04641
3174.37878	0.04633
3172.31884	0.04624
3170.25889	0.04614
3168.19894	0.04609
3166.13900	0.04613
3164.07905	0.04616
3162.01910	0.04612
3159.95915	0.04603
3157.89921	0.04598
3155.83926	0.04593
3153.77931	0.04583
3151.71936	0.04577
3149.65942	0.04580
3147.59947	0.04578
3145.53952	0.04567
3143.47958	0.04561
3141.41963	0.04560
3139.35968	0.04552
3137.29973	0.04536
3135.23979	0.04524
3133.17984	0.04527
3131.11989	0.04531
3129.05994	0.04524
3127.00000	0.04517
3124.94005	0.04517
3122.88010	0.04514
3120.82016	0.04508
3118.76021	0.04501
3116.70026	0.04496
3114.64031	0.04496
3112.58037	0.04495
3110.52042	0.04492
3108.46047	0.04493
3106.40052	0.04491
3104.34058	0.04481
3102.28063	0.04473
3100.22068	0.04473
3098.16073	0.04472
3096.10079	0.04463
3094.04084	0.04454
3091.98089	0.04451
3089.92095	0.04449
3087.86100	0.04451
3085.80105	0.04452
3083.74110	0.04445
3081.68116	0.04433
3079.62121	0.04428
3077.56126	0.04426
3075.50131	0.04426
3073.44137	0.04426
3071.38142	0.04420
3069.32147	0.04408
3067.26153	0.04397
3065.20158	0.04392
3063.14163	0.04391
3061.08168	0.04390
3059.02174	0.04383
3056.96179	0.04380
3054.90184	0.04382
3052.84189	0.04380
3050.78195	0.04376
3048.72200	0.04369
3046.66205	0.04361
3044.60211	0.04357
3042.54216	0.04352
3040.48221	0.04346
3038.42226	0.04345
3036.36232	0.04345
3034.30237	0.04342
3032.24242	0.04340
3030.18247	0.04337
3028.12253	0.04335
3026.06258	0.04332
3024.00263	0.04329
3021.94268	0.04331
3019.88274	0.04331
3017.82279	0.04321
3015.76284	0.04309
3013.70290	0.04304
3011.64295	0.04305
3009.58300	0.04302
3007.52305	0.04292
3005.46311	0.04285
3003.40316	0.04279
3001.34321	0.04271
2999.28326	0.04271
2997.22332	0.04274
2995.16337	0.04273
2993.10342	0.04270
2991.04348	0.04270
2988.98353	0.04271
2986.92358	0.04271
2984.86363	0.04269
2982.80369	0.04268
2980.74374	0.04270
2978.68379	0.04270
2976.62384	0.04264
2974.56390	0.04259
2972.50395	0.04255
2970.44400	0.04252
2968.38406	0.04250
2966.32411	0.04252
2964.26416	0.04258
2962.20421	0.04260
2960.14427	0.04255
2958.08432	0.04249
2956.02437	0.04251
2953.96442	0.04262
2951.90448	0.04267
2949.84453	0.04266
2947.78458	0.04266
2945.72463	0.04274
2943.66469	0.04284
2941.60474	0.04291
2939.54479	0.04293
2937.48485	0.04297
2935.42490	0.04303
2933.36495	0.04308
2931.30500	0.04312
2929.24506	0.04320
2927.18511	0.04334
2925.12516	0.04354
2923.06521	0.04372
2921.00527	0.04376
2918.94532	0.04369
2916.88537	0.04355
2914.82543	0.04340
2912.76548	0.04324
2910.70553	0.04304
2908.64558	0.04284
2906.58564	0.04267
2904.52569	0.04256
2902.46574	0.04249
2900.40579	0.04238
2898.34585	0.04225
2896.28590	0.04219
2894.22595	0.04218
2892.16601	0.04214
2890.10606	0.04206
2888.04611	0.04200
2885.98616	0.04195
2883.92622	0.04190
2881.86627	0.04185
2879.80632	0.04177
2877.74637	0.04168
2875.68643	0.04163
2873.62648	0.04160
2871.56653	0.04159
2869.50658	0.04159
2867.44664	0.04161
2865.38669	0.04158
2863.32674	0.04154
2861.26680	0.04155
2859.20685	0.04159
2857.14690	0.04166
2855.08695	0.04179
2853.02701	0.04198
2850.96706	0.04210
2848.90711	0.04203
2846.84716	0.04178
2844.78722	0.04151
2842.72727	0.04130
2840.66732	0.04114
2838.60738	0.04101
2836.54743	0.04090
2834.48748	0.04077
2832.42753	0.04068
2830.36759	0.04066
2828.30764	0.04068
2826.24769	0.04064
2824.18774	0.04056
2822.12780	0.04047
2820.06785	0.04042
2818.00790	0.04039
2815.94796	0.04035
2813.88801	0.04029
2811.82806	0.04023
2809.76811	0.04017
2807.70817	0.04010
2805.64822	0.04004
2803.58827	0.04001
2801.52832	0.04001
2799.46838	0.04001
2797.40843	0.04000
2795.34848	0.03995
2793.28853	0.03986
2791.22859	0.03981
2789.16864	0.03977
2787.10869	0.03971
2785.04875	0.03968
2782.98880	0.03970
2780.92885	0.03968
2778.86890	0.03965
2776.80896	0.03962
2774.74901	0.03960
2772.68906	0.03957
2770.62911	0.03948
2768.56917	0.03932
2766.50922	0.03923
2764.44927	0.03920
2762.38933	0.03920
2760.32938	0.03922
2758.26943	0.03925
2756.20948	0.03925
2754.14954	0.03922
2752.08959	0.03917
2750.02964	0.03911
2747.96969	0.03903
2745.90975	0.03899
2743.84980	0.03901
2741.78985	0.03897
2739.72991	0.03890
2737.66996	0.03889
2735.61001	0.03892
2733.55006	0.03891
2731.49012	0.03885
2729.43017	0.03878
2727.37022	0.03876
2725.31027	0.03877
2723.25033	0.03876
2721.19038	0.03871
2719.13043	0.03867
2717.07048	0.03861
2715.01054	0.03858
2712.95059	0.03861
2710.89064	0.03860
2708.83070	0.03855
2706.77075	0.03850
2704.71080	0.03848
2702.65085	0.03846
2700.59091	0.03840
2698.53096	0.03834
2696.47101	0.03829
2694.41106	0.03822
2692.35112	0.03818
2690.29117	0.03816
2688.23122	0.03816
2686.17128	0.03815
2684.11133	0.03814
2682.05138	0.03811
2679.99143	0.03808
2677.93149	0.03808
2675.87154	0.03807
2673.81159	0.03803
2671.75164	0.03801
2669.69170	0.03806
2667.63175	0.03819
2665.57180	0.03837
2663.51186	0.03848
2661.45191	0.03854
2659.39196	0.03860
2657.33201	0.03861
2655.27207	0.03858
2653.21212	0.03856
2651.15217	0.03854
2649.09222	0.03850
2647.03228	0.03840
2644.97233	0.03828
2642.91238	0.03818
2640.85243	0.03806
2638.79249	0.03791
2636.73254	0.03779
2634.67259	0.03771
2632.61265	0.03763
2630.55270	0.03753
2628.49275	0.03744
2626.43280	0.03737
2624.37286	0.03728
2622.31291	0.03720
2620.25296	0.03708
2618.19301	0.03695
2616.13307	0.03689
2614.07312	0.03685
2612.01317	0.03675
2609.95323	0.03660
2607.89328	0.03647
2605.83333	0.03642
2603.77338	0.03639
2601.71344	0.03632
2599.65349	0.03624
2597.59354	0.03613
2595.53359	0.03601
2593.47365	0.03594
2591.41370	0.03593
2589.35375	0.03587
2587.29381	0.03576
2585.23386	0.03568
2583.17391	0.03565
2581.11396	0.03559
2579.05402	0.03548
2576.99407	0.03540
2574.93412	0.03538
2572.87417	0.03538
2570.81423	0.03534
2568.75428	0.03524
2566.69433	0.03515
2564.63438	0.03517
2562.57444	0.03521
2560.51449	0.03516
2558.45454	0.03505
2556.39460	0.03495
2554.33465	0.03483
2552.27470	0.03475
2550.21475	0.03469
2548.15481	0.03461
2546.09486	0.03455
2544.03491	0.03451
2541.97496	0.03445
2539.91502	0.03437
2537.85507	0.03434
2535.79512	0.03431
2533.73518	0.03423
2531.67523	0.03421
2529.61528	0.03426
2527.55533	0.03429
2525.49539	0.03425
2523.43544	0.03420
2521.37549	0.03417
2519.31554	0.03412
2517.25560	0.03403
2515.19565	0.03395
2513.13570	0.03387
2511.07576	0.03383
2509.01581	0.03388
2506.95586	0.03393
2504.89591	0.03391
2502.83597	0.03387
2500.77602	0.03385
2498.71607	0.03386
2496.65612	0.03384
2494.59618	0.03378
2492.53623	0.03369
2490.47628	0.03357
2488.41633	0.03347
2486.35639	0.03348
2484.29644	0.03355
2482.23649	0.03356
2480.17655	0.03353
2478.11660	0.03344
2476.05665	0.03332
2473.99670	0.03327
2471.93676	0.03328
2469.87681	0.03334
2467.81686	0.03347
2465.75691	0.03352
2463.69697	0.03341
2461.63702	0.03330
2459.57707	0.03337
2457.51713	0.03348
2455.45718	0.03341
2453.39723	0.03329
2451.33728	0.03328
2449.27734	0.03327
2447.21739	0.03319
2445.15744	0.03309
2443.09749	0.03301
2441.03755	0.03289
2438.97760	0.03282
2436.91765	0.03286
2434.85771	0.03282
2432.79776	0.03264
2430.73781	0.03253
2428.67786	0.03252
2426.61792	0.03246
2424.55797	0.03241
2422.49802	0.03241
2420.43807	0.03240
2418.37813	0.03236
2416.31818	0.03229
2414.25823	0.03222
2412.19828	0.03219
2410.13834	0.03216
2408.07839	0.03205
2406.01844	0.03185
2403.95850	0.03174
2401.89855	0.03177
2399.83860	0.03180
2397.77865	0.03177
2395.71871	0.03169
2393.65876	0.03160
2391.59881	0.03151
2389.53886	0.03142
2387.47892	0.03139
2385.41897	0.03143
2383.35902	0.03140
2381.29908	0.03129
2379.23913	0.03121
2377.17918	0.03117
2375.11923	0.03105
2373.05929	0.03086
2370.99934	0.03068
2368.93939	0.03057
2366.87944	0.03067
2364.81950	0.03102
2362.75955	0.03129
2360.69960	0.03129
2358.63966	0.03130
2356.57971	0.03155
2354.51976	0.03200
2352.45981	0.03233
2350.39987	0.03224
2348.33992	0.03187
2346.27997	0.03164
2344.22002	0.03169
2342.16008	0.03168
2340.10013	0.03158
2338.04018	0.03161
2335.98023	0.03170
2333.92029	0.03170
2331.86034	0.03181
2329.80039	0.03246
2327.74045	0.03378
2325.68050	0.03479
2323.62055	0.03457
2321.56060	0.03376
2319.50066	0.03330
2317.44071	0.03310
2315.38076	0.03293
2313.32081	0.03283
2311.26087	0.03279
2309.20092	0.03273
2307.14097	0.03266
2305.08103	0.03251
2303.02108	0.03234
2300.96113	0.03229
2298.90118	0.03232
2296.84124	0.03241
2294.78129	0.03266
2292.72134	0.03304
2290.66139	0.03330
2288.60145	0.03337
2286.54150	0.03317
2284.48155	0.03269
2282.42161	0.03222
2280.36166	0.03193
2278.30171	0.03173
2276.24176	0.03160
2274.18182	0.03146
2272.12187	0.03125
2270.06192	0.03106
2268.00197	0.03091
2265.94203	0.03077
2263.88208	0.03071
2261.82213	0.03077
2259.76218	0.03081
2257.70224	0.03058
2255.64229	0.03013
2253.58234	0.02984
2251.52240	0.02983
2249.46245	0.03002
2247.40250	0.03018
2245.34255	0.03016
2243.28261	0.03016
2241.22266	0.03025
2239.16271	0.03032
2237.10276	0.03028
2235.04282	0.03020
2232.98287	0.03018
2230.92292	0.03008
2228.86298	0.02969
2226.80303	0.02936
2224.74308	0.02928
2222.68313	0.02919
2220.62319	0.02912
2218.56324	0.02921
2216.50329	0.02924
2214.44334	0.02903
2212.38340	0.02886
2210.32345	0.02884
2208.26350	0.02891
2206.20356	0.02902
2204.14361	0.02890
2202.08366	0.02856
2200.02371	0.02835
2197.96377	0.02854
2195.90382	0.02896
2193.84387	0.02912
2191.78392	0.02899
2189.72398	0.02883
2187.66403	0.02864
2185.60408	0.02819
2183.54413	0.02753
2181.48419	0.02725
2179.42424	0.02706
2177.36429	0.02631
2175.30435	0.02595
2173.24440	0.02685
2171.18445	0.02812
2169.12450	0.02897
2167.06456	0.02936
2165.00461	0.02945
2162.94466	0.02847
2160.88471	0.02487
2158.82477	0.02065
2156.76482	0.01971
2154.70487	0.02120
2152.64493	0.02268
2150.58498	0.02325
2148.52503	0.02332
2146.46508	0.02342
2144.40514	0.02350
2142.34519	0.02357
2140.28524	0.02371
2138.22529	0.02360
2136.16535	0.02320
2134.10540	0.02332
2132.04545	0.02415
2129.98551	0.02492
2127.92556	0.02539
2125.86561	0.02577
2123.80566	0.02611
2121.74572	0.02643
2119.68577	0.02681
2117.62582	0.02734
2115.56587	0.02774
2113.50593	0.02773
2111.44598	0.02760
2109.38603	0.02763
2107.32608	0.02771
2105.26614	0.02767
2103.20619	0.02757
2101.14624	0.02758
2099.08630	0.02741
2097.02635	0.02693
2094.96640	0.02660
2092.90645	0.02666
2090.84651	0.02686
2088.78656	0.02716
2086.72661	0.02752
2084.66666	0.02772
2082.60672	0.02784
2080.54677	0.02804
2078.48682	0.02819
2076.42688	0.02805
2074.36693	0.02766
2072.30698	0.02734
2070.24703	0.02723
2068.18709	0.02719
2066.12714	0.02710
2064.06719	0.02700
2062.00724	0.02689
2059.94730	0.02691
2057.88735	0.02700
2055.82740	0.02718
2053.76746	0.02801
2051.70751	0.02873
2049.64756	0.02807
2047.58761	0.02697
2045.52767	0.02621
2043.46772	0.02572
2041.40777	0.02588
2039.34782	0.02633
2037.28788	0.02626
2035.22793	0.02563
2033.16798	0.02490
2031.10803	0.02448
2029.04809	0.02452
2026.98814	0.02474
2024.92819	0.02478
2022.86825	0.02450
2020.80830	0.02408
2018.74835	0.02411
2016.68840	0.02449
2014.62846	0.02475
2012.56851	0.02499
2010.50856	0.02503
2008.44861	0.02449
2006.38867	0.02393
2004.32872	0.02422
2002.26877	0.02506
2000.20883	0.02560
1998.14888	0.02566
1996.08893	0.02565
1994.02898	0.02581
1991.96904	0.02614
1989.90909	0.02654
1987.84914	0.02681
1985.78919	0.02686
1983.72925	0.02729
1981.66930	0.02781
1979.60935	0.02667
1977.54941	0.02435
1975.48946	0.02319
1973.42951	0.02334
1971.36956	0.02370
1969.30962	0.02391
1967.24967	0.02394
1965.18972	0.02384
1963.12977	0.02364
1961.06983	0.02334
1959.00988	0.02321
1956.94993	0.02354
1954.88998	0.02398
1952.83004	0.02425
1950.77009	0.02450
1948.71014	0.02460
1946.65020	0.02446
1944.59025	0.02443
1942.53030	0.02464
1940.47035	0.02461
1938.41041	0.02441
1936.35046	0.02435
1934.29051	0.02439
1932.23056	0.02453
1930.17062	0.02473
1928.11067	0.02491
1926.05072	0.02496
1923.99078	0.02492
1921.93083	0.02498
1919.87088	0.02513
1917.81093	0.02536
1915.75099	0.02560
1913.69104	0.02565
1911.63109	0.02560
1909.57114	0.02561
1907.51120	0.02575
1905.45125	0.02589
1903.39130	0.02586
1901.33136	0.02580
1899.27141	0.02587
1897.21146	0.02600
1895.15151	0.02612
1893.09157	0.02622
1891.03162	0.02633
1888.97167	0.02648
1886.91172	0.02658
1884.85178	0.02657
1882.79183	0.02656
1880.73188	0.02654
1878.67193	0.02647
1876.61199	0.02647
1874.55204	0.02654
1872.49209	0.02652
1870.43215	0.02650
1868.37220	0.02659
1866.31225	0.02660
1864.25230	0.02646
1862.19236	0.02634
1860.13241	0.02632
1858.07246	0.02632
1856.01251	0.02622
1853.95257	0.02604
1851.89262	0.02590
1849.83267	0.02581
1847.77273	0.02569
1845.71278	0.02563
1843.65283	0.02574
1841.59288	0.02578
1839.53294	0.02569
1837.47299	0.02565
1835.41304	0.02562
1833.35309	0.02548
1831.29315	0.02549
1829.23320	0.02573
1827.17325	0.02581
1825.11331	0.02583
1823.05336	0.02584
1820.99341	0.02563
1818.93346	0.02530
1816.87352	0.02514
1814.81357	0.02525
1812.75362	0.02551
1810.69367	0.02581
1808.63373	0.02600
1806.57378	0.02605
1804.51383	0.02607
1802.45388	0.02616
1800.39394	0.02627
1798.33399	0.02625
1796.27404	0.02617
1794.21410	0.02618
1792.15415	0.02637
1790.09420	0.02648
1788.03425	0.02640
1785.97431	0.02634
1783.91436	0.02634
1781.85441	0.02632
1779.79446	0.02634
1777.73452	0.02633
1775.67457	0.02628
1773.61462	0.02637
1771.55468	0.02660
1769.49473	0.02664
1767.43478	0.02651
1765.37483	0.02632
1763.31489	0.02625
1761.25494	0.02643
1759.19499	0.02656
1757.13504	0.02662
1755.07510	0.02665
1753.01515	0.02662
1750.95520	0.02683
1748.89526	0.02719
1746.83531	0.02731
1744.77536	0.02728
1742.71541	0.02724
1740.65547	0.02733
1738.59552	0.02742
1736.53557	0.02737
1734.47562	0.02764
1732.41568	0.02820
1730.35573	0.02829
1728.29578	0.02815
1726.23583	0.02805
1724.17589	0.02810
1722.11594	0.02818
1720.05599	0.02818
1717.99605	0.02851
1715.93610	0.02915
1713.87615	0.02930
1711.81620	0.02919
1709.75626	0.02914
1707.69631	0.02921
1705.63636	0.02944
1703.57641	0.02950
1701.51647	0.02959
1699.45652	0.03022
1697.39657	0.03064
1695.33663	0.03075
1693.27668	0.03074
1691.21673	0.03075
1689.15678	0.03095
1687.09684	0.03110
1685.03689	0.03157
1682.97694	0.03242
1680.91699	0.03249
1678.85705	0.03226
1676.79710	0.03225
1674.73715	0.03261
1672.67721	0.03287
1670.61726	0.03305
1668.55731	0.03340
1666.49736	0.03344
1664.43742	0.03340
1662.37747	0.03371
1660.31752	0.03398
1658.25757	0.03391
1656.19763	0.03372
1654.13768	0.03401
1652.07773	0.03504
1650.01778	0.03508
1647.95784	0.03499
1645.89789	0.03546
1643.83794	0.03552
1641.77800	0.03525
1639.71805	0.03508
1637.65810	0.03516
1635.59815	0.03578
1633.53821	0.03612
1631.47826	0.03588
1629.41831	0.03580
1627.35836	0.03599
1625.29842	0.03613
1623.23847	0.03628
1621.17852	0.03629
1619.11858	0.03614
1617.05863	0.03630
1614.99868	0.03650
1612.93873	0.03625
1610.87879	0.03602
1608.81884	0.03599
1606.75889	0.03594
1604.69894	0.03581
1602.63900	0.03572
1600.57905	0.03565
1598.51910	0.03557
1596.45916	0.03550
1594.39921	0.03541
1592.33926	0.03523
1590.27931	0.03507
1588.21937	0.03499
1586.15942	0.03493
1584.09947	0.03482
1582.03952	0.03464
1579.97958	0.03440
1577.91963	0.03424
1575.85968	0.03437
1573.79973	0.03430
1571.73979	0.03401
1569.67984	0.03398
1567.61989	0.03395
1565.55995	0.03368
1563.50000	0.03334
1561.44005	0.03300
1559.38010	0.03327
1557.32016	0.03387
1555.26021	0.03356
1553.20026	0.03315
1551.14031	0.03290
1549.08037	0.03273
1547.02042	0.03259
1544.96047	0.03253
1542.90053	0.03254
1540.84058	0.03275
1538.78063	0.03303
1536.72068	0.03271
1534.66074	0.03239
1532.60079	0.03238
1530.54084	0.03228
1528.48089	0.03208
1526.42095	0.03200
1524.36100	0.03187
1522.30105	0.03180
1520.24111	0.03189
1518.18116	0.03186
1516.12121	0.03177
1514.06126	0.03158
1512.00132	0.03131
1509.94137	0.03110
1507.88142	0.03115
1505.82147	0.03137
1503.76153	0.03104
1501.70158	0.03058
1499.64163	0.03037
1497.58168	0.03044
1495.52174	0.03040
1493.46179	0.03008
1491.40184	0.02986
1489.34190	0.02996
1487.28195	0.02991
1485.22200	0.02960
1483.16205	0.02935
1481.10211	0.02925
1479.04216	0.02920
1476.98221	0.02918
1474.92226	0.02934
1472.86232	0.02972
1470.80237	0.02995
1468.74242	0.02985
1466.68248	0.02984
1464.62253	0.03006
1462.56258	0.03009
1460.50263	0.02988
1458.44269	0.02994
1456.38274	0.03043
1454.32279	0.03043
1452.26284	0.03017
1450.20290	0.03004
1448.14295	0.03004
1446.08300	0.03000
1444.02306	0.02987
1441.96311	0.02979
1439.90316	0.02973
1437.84321	0.02979
1435.78327	0.03008
1433.72332	0.03014
1431.66337	0.03008
1429.60342	0.03018
1427.54348	0.03021
1425.48353	0.03018
1423.42358	0.03024
1421.36363	0.03030
1419.30369	0.03050
1417.24374	0.03070
1415.18379	0.03057
1413.12385	0.03040
1411.06390	0.03035
1409.00395	0.03031
1406.94400	0.03026
1404.88406	0.03031
1402.82411	0.03033
1400.76416	0.03032
1398.70421	0.03040
1396.64427	0.03052
1394.58432	0.03055
1392.52437	0.03041
1390.46443	0.03022
1388.40448	0.03021
1386.34453	0.03033
1384.28458	0.03031
1382.22464	0.03027
1380.16469	0.03031
1378.10474	0.03035
1376.04479	0.03035
1373.98485	0.03036
1371.92490	0.03032
1369.86495	0.03024
1367.80501	0.03014
1365.74506	0.03000
1363.68511	0.02998
1361.62516	0.03006
1359.56522	0.02996
1357.50527	0.02976
1355.44532	0.02963
1353.38537	0.02957
1351.32543	0.02953
1349.26548	0.02946
1347.20553	0.02940
1345.14558	0.02936
1343.08564	0.02935
1341.02569	0.02940
1338.96574	0.02948
1336.90580	0.02947
1334.84585	0.02935
1332.78590	0.02919
1330.72595	0.02910
1328.66601	0.02909
1326.60606	0.02911
1324.54611	0.02914
1322.48616	0.02914
1320.42622	0.02916
1318.36627	0.02922
1316.30632	0.02925
1314.24638	0.02924
1312.18643	0.02922
1310.12648	0.02920
1308.06653	0.02921
1306.00659	0.02923
1303.94664	0.02927
1301.88669	0.02937
1299.82674	0.02947
1297.76680	0.02956
1295.70685	0.02964
1293.64690	0.02974
1291.58696	0.02989
1289.52701	0.03007
1287.46706	0.03024
1285.40711	0.03042
1283.34717	0.03059
1281.28722	0.03075
1279.22727	0.03091
1277.16732	0.03108
1275.10738	0.03125
1273.04743	0.03142
1270.98748	0.03155
1268.92753	0.03167
1266.86759	0.03181
1264.80764	0.03196
1262.74769	0.03211
1260.68775	0.03228
1258.62780	0.03248
1256.56785	0.03270
1254.50790	0.03297
1252.44796	0.03331
1250.38801	0.03369
1248.32806	0.03410
1246.26811	0.03452
1244.20817	0.03494
1242.14822	0.03538
1240.08827	0.03584
1238.02833	0.03630
1235.96838	0.03680
1233.90843	0.03733
1231.84848	0.03791
1229.78854	0.03858
1227.72859	0.03933
1225.66864	0.04022
1223.60869	0.04137
1221.54875	0.04278
1219.48880	0.04431
1217.42885	0.04588
1215.36891	0.04750
1213.30896	0.04922
1211.24901	0.05093
1209.18906	0.05255
1207.12912	0.05408
1205.06917	0.05552
1203.00922	0.05688
1200.94927	0.05814
1198.88933	0.05932
1196.82938	0.06042
1194.76943	0.06147
1192.70949	0.06251
1190.64954	0.06355
1188.58959	0.06456
1186.52964	0.06557
1184.46970	0.06662
1182.40975	0.06773
1180.34980	0.06898
1178.28985	0.07043
1176.22991	0.07208
1174.16996	0.07396
1172.11001	0.07617
1170.05006	0.07866
1167.99012	0.08131
1165.93017	0.08401
1163.87022	0.08629
1161.81028	0.08727
1159.75033	0.08661
1157.69038	0.08511
1155.63043	0.08397
1153.57049	0.08380
1151.51054	0.08448
1149.45059	0.08560
1147.39064	0.08695
1145.33070	0.08849
1143.27075	0.09017
1141.21080	0.09193
1139.15086	0.09376
1137.09091	0.09576
1135.03096	0.09797
1132.97101	0.10031
1130.91107	0.10271
1128.85112	0.10519
1126.79117	0.10777
1124.73122	0.11047
1122.67128	0.11327
1120.61133	0.11614
1118.55138	0.11902
1116.49144	0.12194
1114.43149	0.12495
1112.37154	0.12801
1110.31159	0.13113
1108.25165	0.13439
1106.19170	0.13782
1104.13175	0.14131
1102.07180	0.14482
1100.01186	0.14838
1097.95191	0.15201
1095.89196	0.15565
1093.83201	0.15922
1091.77207	0.16269
1089.71212	0.16606
1087.65217	0.16917
1085.59223	0.17180
1083.53228	0.17393
1081.47233	0.17559
1079.41238	0.17665
1077.35244	0.17706
1075.29249	0.17688
1073.23254	0.17624
1071.17259	0.17544
1069.11265	0.17470
1067.05270	0.17407
1064.99275	0.17358
1062.93281	0.17312
1060.87286	0.17238
1058.81291	0.17125
1056.75296	0.16993
1054.69302	0.16854
1052.63307	0.16706
1050.57312	0.16559
1048.51317	0.16415
1046.45323	0.16272
1044.39328	0.16147
1042.33333	0.16056
1040.27339	0.15983
1038.21344	0.15912
1036.15349	0.15835
1034.09354	0.15747
1032.03360	0.15649
1029.97365	0.15552
1027.91370	0.15456
1025.85375	0.15353
1023.79381	0.15248
1021.73386	0.15146
1019.67391	0.15050
1017.61396	0.14963
1015.55402	0.14877
1013.49407	0.14792
1011.43412	0.14712
1009.37418	0.14634
1007.31423	0.14545
1005.25428	0.14445
1003.19433	0.14339
1001.13439	0.14231
999.07444	0.14118
997.01449	0.13995
994.95454	0.13867
992.89460	0.13742
990.83465	0.13623
988.77470	0.13501
986.71476	0.13373
984.65481	0.13241
982.59486	0.13108
980.53491	0.12974
978.47497	0.12836
976.41502	0.12695
974.35507	0.12555
972.29512	0.12415
970.23518	0.12272
968.17523	0.12131
966.11528	0.11992
964.05534	0.11854
961.99539	0.11713
959.93544	0.11573
957.87549	0.11436
955.81555	0.11298
953.75560	0.11160
951.69565	0.11028
949.63570	0.10899
947.57576	0.10777
945.51581	0.10664
943.45586	0.10548
941.39591	0.10424
939.33597	0.10299
937.27602	0.10171
935.21607	0.10042
933.15613	0.09916
931.09618	0.09793
929.03623	0.09676
926.97628	0.09560
924.91634	0.09436
922.85639	0.09318
920.79644	0.09211
918.73649	0.09108
916.67655	0.09008
914.61660	0.08906
912.55665	0.08793
910.49671	0.08667
908.43676	0.08531
906.37681	0.08389
904.31686	0.08239
902.25692	0.08082
900.19697	0.07929
898.13702	0.07777
896.07707	0.07627
894.01713	0.07487
891.95718	0.07357
889.89723	0.07228
887.83729	0.07097
885.77734	0.06958
883.71739	0.06820
881.65744	0.06688
879.59750	0.06558
877.53755	0.06429
875.47760	0.06305
873.41765	0.06183
871.35771	0.06060
869.29776	0.05935
867.23781	0.05815
865.17786	0.05702
863.11792	0.05590
861.05797	0.05476
858.99802	0.05367
856.93808	0.05271
854.87813	0.05184
852.81818	0.05095
850.75823	0.05016
848.69829	0.04953
846.63834	0.04897
844.57839	0.04840
842.51844	0.04792
840.45850	0.04764
838.39855	0.04757
836.33860	0.04757
834.27866	0.04753
832.21871	0.04752
830.15876	0.04764
828.09881	0.04792
826.03887	0.04843
823.97892	0.04910
821.91897	0.04988
819.85902	0.05100
817.79908	0.05268
815.73913	0.05491
813.67918	0.05781
811.61924	0.06194
809.55929	0.06783
807.49934	0.07567
805.43939	0.08512
803.37945	0.09531
801.31950	0.10504
799.25955	0.11287
797.19960	0.11729
795.13966	0.11796
793.07971	0.11634
791.01976	0.11443
788.95981	0.11363
786.89987	0.11480
784.83992	0.11822
782.77997	0.12330
780.72003	0.12844
778.66008	0.13148
776.60013	0.13114
774.54018	0.12795
772.48024	0.12337
770.42029	0.11849
768.36034	0.11394
766.30039	0.10987
764.24045	0.10613
762.18050	0.10266
760.12055	0.09953
758.06061	0.09665
756.00066	0.09393
753.94071	0.09139
751.88076	0.08905
749.82082	0.08688
747.76087	0.08485
745.70092	0.08296
743.64097	0.08118
741.58103	0.07947
739.52108	0.07781
737.46113	0.07623
735.40119	0.07479
733.34124	0.07356
731.28129	0.07250
729.22134	0.07150
727.16140	0.07054
725.10145	0.06965
723.04150	0.06881
720.98155	0.06799
718.92161	0.06728
716.86166	0.06678
714.80171	0.06648
712.74176	0.06631
710.68182	0.06635
708.62187	0.06679
706.56192	0.06775
704.50198	0.06941
702.44203	0.07219
700.38208	0.07663
698.32213	0.08269
696.26219	0.08844
694.20224	0.09067
692.14229	0.08850
690.08234	0.08405
688.02240	0.07941
685.96245	0.07524
683.90250	0.07179
681.84256	0.06911
679.78261	0.06681
677.72266	0.06475
675.66271	0.06304
673.60277	0.06159
671.54282	0.06027
669.48287	0.05906
667.42292	0.05798
665.36298	0.05707
663.30303	0.05620
661.24308	0.05537
659.18314	0.05465
657.12319	0.05395
655.06324	0.05336
653.00329	0.05298
650.94335	0.05265
648.88340	0.05219
646.82345	0.05161
644.76350	0.05105
642.70356	0.05057
640.64361	0.05011
638.58366	0.04963
636.52371	0.04907
634.46377	0.04849
632.40382	0.04797
630.34387	0.04752
628.28393	0.04723
626.22398	0.04703
624.16403	0.04677
622.10408	0.04655
620.04414	0.04648
617.98419	0.04647
615.92424	0.04640
613.86429	0.04630
611.80435	0.04625
609.74440	0.04627
607.68445	0.04633
605.62451	0.04638
603.56456	0.04639
601.50461	0.04632
599.44466	0.04639
597.38472	0.04654
595.32477	0.04658
593.26482	0.04669
591.20487	0.04681
589.14493	0.04670
587.08498	0.04662
585.02503	0.04667
582.96509	0.04672
580.90514	0.04675
578.84519	0.04677
576.78524	0.04679
574.72530	0.04686
572.66535	0.04690
570.60540	0.04687
568.54545	0.04702
566.48551	0.04734
564.42556	0.04758
562.36561	0.04787
560.30566	0.04837
558.24572	0.04893
556.18577	0.04955
554.12582	0.05063
552.06588	0.05222
550.00593	0.05417
547.94598	0.05652
545.88603	0.05940
543.82609	0.06282
541.76614	0.06672
539.70619	0.07093
537.64624	0.07521
535.58630	0.07968
533.52635	0.08436
531.46640	0.08883
529.40646	0.09278
527.34651	0.09613
525.28656	0.09900
523.22661	0.10133
521.16667	0.10295
519.10672	0.10383
517.04677	0.10403
514.98682	0.10355
512.92688	0.10233
510.86693	0.10045
508.80698	0.09853
506.74704	0.09747
504.68709	0.09797
502.62714	0.10025
500.56719	0.10373
498.50725	0.10765
496.44730	0.11189
494.38735	0.11638
492.32740	0.12117
490.26746	0.12599
488.20751	0.13039
486.14756	0.13483
484.08761	0.13991
482.02767	0.14540
479.96772	0.15090
477.90777	0.15647
475.84783	0.16217
473.78788	0.16820
471.72793	0.17456
469.66798	0.18033
467.60804	0.18576
465.54809	0.19129
463.48814	0.19611
461.42819	0.19994
459.36825	0.20273
457.30830	0.20390
455.24835	0.20282
453.18841	0.20024
451.12846	0.19720
449.06851	0.19404
447.00856	0.19047
444.94862	0.18673
442.88867	0.18332
440.82872	0.18029
438.76877	0.17766
436.70883	0.17541
434.64888	0.17328
432.58893	0.17079
430.52899	0.16754
428.46904	0.16404
426.40909	0.16119
424.34914	0.15907
422.28920	0.15669
420.22925	0.15299
418.16930	0.14746
416.10935	0.14140
414.04941	0.13478
411.98946	0.12749
409.92951	0.12052
407.86956	0.11424
405.80962	0.11127
403.74967	0.11504
401.68972	0.12570
399.62978	0.14291
