3996.29776	0.01470
3994.23781	0.01463
3992.17786	0.01461
3990.11791	0.01464
3988.05797	0.01465
3985.99802	0.01460
3983.93807	0.01456
3981.87813	0.01463
3979.81818	0.01468
3977.75823	0.01463
3975.69828	0.01457
3973.63834	0.01455
3971.57839	0.01453
3969.51844	0.01453
3967.45849	0.01462
3965.39855	0.01469
3963.33860	0.01468
3961.27865	0.01466
3959.21870	0.01465
3957.15876	0.01463
3955.09881	0.01459
3953.03886	0.01456
3950.97892	0.01459
3948.91897	0.01469
3946.85902	0.01477
3944.79907	0.01482
3942.73913	0.01484
3940.67918	0.01479
3938.61923	0.01470
3936.55928	0.01470
3934.49934	0.01486
3932.43939	0.01498
3930.37944	0.01482
3928.31950	0.01461
3926.25955	0.01459
3924.19960	0.01464
3922.13965	0.01464
3920.07971	0.01466
3918.01976	0.01474
3915.95981	0.01474
3913.89986	0.01464
3911.83992	0.01457
3909.77997	0.01455
3907.72002	0.01467
3905.66008	0.01497
3903.60013	0.01529
3901.54018	0.01538
3899.48023	0.01518
3897.42029	0.01491
3895.36034	0.01480
3893.30039	0.01485
3891.24044	0.01479
3889.18050	0.01467
3887.12055	0.01479
3885.06060	0.01498
3883.00065	0.01496
3880.94071	0.01485
3878.88076	0.01469
3876.82081	0.01464
3874.76087	0.01474
3872.70092	0.01485
3870.64097	0.01500
3868.58102	0.01508
3866.52108	0.01502
3864.46113	0.01494
3862.40118	0.01483
3860.34123	0.01470
3858.28129	0.01473
3856.22134	0.01496
3854.16139	0.01521
3852.10145	0.01501
3850.04150	0.01460
3847.98155	0.01444
3845.92160	0.01450
3843.86166	0.01460
3841.80171	0.01474
3839.74176	0.01495
3837.68181	0.01492
3835.62187	0.01467
3833.56192	0.01457
3831.50197	0.01458
3829.44203	0.01456
3827.38208	0.01451
3825.32213	0.01452
3823.26218	0.01469
3821.20224	0.01491
3819.14229	0.01488
3817.08234	0.01468
3815.02239	0.01447
3812.96245	0.01426
3810.90250	0.01409
3808.84255	0.01408
3806.78260	0.01431
3804.72266	0.01468
3802.66271	0.01495
3800.60276	0.01493
3798.54282	0.01472
3796.48287	0.01450
3794.42292	0.01425
3792.36297	0.01405
3790.30303	0.01398
3788.24308	0.01404
3786.18313	0.01424
3784.12318	0.01435
3782.06324	0.01429
3780.00329	0.01425
3777.94334	0.01426
3775.88340	0.01421
3773.82345	0.01415
3771.76350	0.01426
3769.70355	0.01451
3767.64361	0.01461
3765.58366	0.01452
3763.52371	0.01439
3761.46376	0.01428
3759.40382	0.01422
3757.34387	0.01420
3755.28392	0.01434
3753.22398	0.01469
3751.16403	0.01501
3749.10408	0.01498
3747.04413	0.01480
3744.98419	0.01459
3742.92424	0.01445
3740.86429	0.01443
3738.80434	0.01442
3736.74440	0.01441
3734.68445	0.01439
3732.62450	0.01422
3730.56455	0.01410
3728.50461	0.01418
3726.44466	0.01426
3724.38471	0.01418
3722.32477	0.01402
3720.26482	0.01393
3718.20487	0.01395
3716.14492	0.01408
3714.08498	0.01434
3712.02503	0.01466
3709.96508	0.01469
3707.90513	0.01437
3705.84519	0.01423
3703.78524	0.01442
3701.72529	0.01463
3699.66535	0.01461
3697.60540	0.01465
3695.54545	0.01480
3693.48550	0.01494
3691.42556	0.01503
3689.36561	0.01497
3687.30566	0.01484
3685.24571	0.01475
3683.18577	0.01466
3681.12582	0.01473
3679.06587	0.01498
3677.00593	0.01530
3674.94598	0.01546
3672.88603	0.01538
3670.82608	0.01540
3668.76614	0.01527
3666.70619	0.01493
3664.64624	0.01478
3662.58629	0.01488
3660.52635	0.01512
3658.46640	0.01530
3656.40645	0.01536
3654.34651	0.01537
3652.28656	0.01555
3650.22661	0.01598
3648.16666	0.01630
3646.10672	0.01620
3644.04677	0.01597
3641.98682	0.01580
3639.92687	0.01580
3637.86693	0.01603
3635.80698	0.01632
3633.74703	0.01645
3631.68708	0.01660
3629.62714	0.01690
3627.56719	0.01695
3625.50724	0.01672
3623.44730	0.01664
3621.38735	0.01681
3619.32740	0.01704
3617.26745	0.01714
3615.20751	0.01716
3613.14756	0.01706
3611.08761	0.01700
3609.02766	0.01710
3606.96772	0.01703
3604.90777	0.01678
3602.84782	0.01669
3600.78788	0.01674
3598.72793	0.01675
3596.66798	0.01674
3594.60803	0.01678
3592.54809	0.01682
3590.48814	0.01691
3588.42819	0.01707
3586.36824	0.01712
3584.30830	0.01703
3582.24835	0.01696
3580.18840	0.01691
3578.12846	0.01682
3576.06851	0.01679
3574.00856	0.01685
3571.94861	0.01691
3569.88867	0.01714
3567.82872	0.01762
3565.76877	0.01780
3563.70882	0.01754
3561.64888	0.01732
3559.58893	0.01721
3557.52898	0.01715
3555.46903	0.01718
3553.40909	0.01719
3551.34914	0.01717
3549.28919	0.01731
3547.22925	0.01764
3545.16930	0.01777
3543.10935	0.01766
3541.04940	0.01763
3538.98946	0.01773
3536.92951	0.01777
3534.86956	0.01770
3532.80961	0.01767
3530.74967	0.01772
3528.68972	0.01784
3526.62977	0.01800
3524.56983	0.01815
3522.50988	0.01820
3520.44993	0.01819
3518.38998	0.01814
3516.33004	0.01811
3514.27009	0.01812
3512.21014	0.01816
3510.15019	0.01822
3508.09025	0.01830
3506.03030	0.01837
3503.97035	0.01846
3501.91041	0.01853
3499.85046	0.01852
3497.79051	0.01849
3495.73056	0.01846
3493.67062	0.01845
3491.61067	0.01848
3489.55072	0.01857
3487.49077	0.01867
3485.43083	0.01871
3483.37088	0.01875
3481.31093	0.01878
3479.25098	0.01870
3477.19104	0.01864
3475.13109	0.01871
3473.07114	0.01884
3471.01120	0.01897
3468.95125	0.01905
3466.89130	0.01905
3464.83135	0.01904
3462.77141	0.01906
3460.71146	0.01909
3458.65151	0.01912
3456.59156	0.01916
3454.53162	0.01925
3452.47167	0.01931
3450.41172	0.01937
3448.35178	0.01947
3446.29183	0.01948
3444.23188	0.01944
3442.17193	0.01943
3440.11199	0.01945
3438.05204	0.01948
3435.99209	0.01947
3433.93214	0.01945
3431.87220	0.01943
3429.81225	0.01943
3427.75230	0.01950
3425.69236	0.01959
3423.63241	0.01965
3421.57246	0.01972
3419.51251	0.01987
3417.45257	0.01995
3415.39262	0.01988
3413.33267	0.01979
3411.27272	0.01978
3409.21278	0.01975
3407.15283	0.01973
3405.09288	0.01984
3403.03293	0.01997
3400.97299	0.02004
3398.91304	0.02010
3396.85309	0.02013
3394.79315	0.02012
3392.73320	0.02008
3390.67325	0.02001
3388.61330	0.01995
3386.55336	0.01997
3384.49341	0.02005
3382.43346	0.02012
3380.37351	0.02014
3378.31357	0.02010
3376.25362	0.02004
3374.19367	0.02003
3372.13373	0.02007
3370.07378	0.02011
3368.01383	0.02014
3365.95388	0.02015
3363.89394	0.02009
3361.83399	0.02005
3359.77404	0.02009
3357.71409	0.02015
3355.65415	0.02019
3353.59420	0.02019
3351.53425	0.02016
3349.47431	0.02016
3347.41436	0.02017
3345.35441	0.02015
3343.29446	0.02009
3341.23452	0.02002
3339.17457	0.02005
3337.11462	0.02019
3335.05467	0.02027
3332.99473	0.02026
3330.93478	0.02025
3328.87483	0.02024
3326.81488	0.02020
3324.75494	0.02016
3322.69499	0.02014
3320.63504	0.02015
3318.57510	0.02021
3316.51515	0.02030
3314.45520	0.02035
3312.39525	0.02028
3310.33531	0.02023
3308.27536	0.02027
3306.21541	0.02029
3304.15546	0.02022
3302.09552	0.02016
3300.03557	0.02018
3297.97562	0.02019
3295.91568	0.02012
3293.85573	0.02007
3291.79578	0.02009
3289.73583	0.02012
3287.67589	0.02014
3285.61594	0.02010
3283.55599	0.02004
3281.49604	0.02006
3279.43610	0.02014
3277.37615	0.02022
3275.31620	0.02026
3273.25626	0.02026
3271.19631	0.02026
3269.13636	0.02022
3267.07641	0.02014
3265.01647	0.02007
3262.95652	0.01999
3260.89657	0.01989
3258.83662	0.01985
3256.77668	0.01991
3254.71673	0.01993
3252.65678	0.01986
3250.59683	0.01984
3248.53689	0.01990
3246.47694	0.01993
3244.41699	0.01988
3242.35705	0.01982
3240.29710	0.01976
3238.23715	0.01974
3236.17720	0.01972
3234.11726	0.01966
3232.05731	0.01963
3229.99736	0.01966
3227.93741	0.01972
3225.87747	0.01976
3223.81752	0.01976
3221.75757	0.01980
3219.69763	0.01982
3217.63768	0.01974
3215.57773	0.01963
3213.51778	0.01958
3211.45784	0.01961
3209.39789	0.01962
3207.33794	0.01961
3205.27799	0.01964
3203.21805	0.01963
3201.15810	0.01956
3199.09815	0.01949
3197.03821	0.01942
3194.97826	0.01935
3192.91831	0.01928
3190.85836	0.01919
3188.79842	0.01915
3186.73847	0.01920
3184.67852	0.01931
3182.61857	0.01939
3180.55863	0.01938
3178.49868	0.01930
3176.43873	0.01923
3174.37878	0.01920
3172.31884	0.01920
3170.25889	0.01916
3168.19894	0.01917
3166.13900	0.01922
3164.07905	0.01918
3162.01910	0.01908
3159.95915	0.01902
3157.89921	0.01903
3155.83926	0.01906
3153.77931	0.01906
3151.71936	0.01901
3149.65942	0.01895
3147.59947	0.01891
3145.53952	0.01883
3143.47958	0.01879
3141.41963	0.01880
3139.35968	0.01879
3137.29973	0.01876
3135.23979	0.01872
3133.17984	0.01870
3131.11989	0.01868
3129.05994	0.01863
3127.00000	0.01862
3124.94005	0.01871
3122.88010	0.01876
3120.82016	0.01875
3118.76021	0.01879
3116.70026	0.01879
3114.64031	0.01872
3112.58037	0.01864
3110.52042	0.01856
3108.46047	0.01855
3106.40052	0.01857
3104.34058	0.01851
3102.28063	0.01845
3100.22068	0.01848
3098.16073	0.01849
3096.10079	0.01842
3094.04084	0.01836
3091.98089	0.01838
3089.92095	0.01844
3087.86100	0.01845
3085.80105	0.01843
3083.74110	0.01840
3081.68116	0.01835
3079.62121	0.01832
3077.56126	0.01831
3075.50131	0.01826
3073.44137	0.01817
3071.38142	0.01813
3069.32147	0.01815
3067.26153	0.01812
3065.20158	0.01801
3063.14163	0.01795
3061.08168	0.01798
3059.02174	0.01801
3056.96179	0.01794
3054.90184	0.01787
3052.84189	0.01788
3050.78195	0.01798
3048.72200	0.01799
3046.66205	0.01788
3044.60211	0.01784
3042.54216	0.01783
3040.48221	0.01777
3038.42226	0.01777
3036.36232	0.01783
3034.30237	0.01785
3032.24242	0.01784
3030.18247	0.01783
3028.12253	0.01782
3026.06258	0.01781
3024.00263	0.01781
3021.94268	0.01781
3019.88274	0.01778
3017.82279	0.01775
3015.76284	0.01771
3013.70290	0.01767
3011.64295	0.01765
3009.58300	0.01767
3007.52305	0.01769
3005.46311	0.01761
3003.40316	0.01749
3001.34321	0.01743
2999.28326	0.01745
2997.22332	0.01753
2995.16337	0.01756
2993.10342	0.01752
2991.04348	0.01748
2988.98353	0.01746
2986.92358	0.01748
2984.86363	0.01756
2982.80369	0.01764
2980.74374	0.01768
2978.68379	0.01770
2976.62384	0.01774
2974.56390	0.01781
2972.50395	0.01788
2970.44400	0.01791
2968.38406	0.01796
2966.32411	0.01808
2964.26416	0.01825
2962.20421	0.01838
2960.14427	0.01845
2958.08432	0.01845
2956.02437	0.01839
2953.96442	0.01833
2951.90448	0.01828
2949.84453	0.01822
2947.78458	0.01817
2945.72463	0.01819
2943.66469	0.01826
2941.60474	0.01831
2939.54479	0.01834
2937.48485	0.01843
2935.42490	0.01855
2933.36495	0.01864
2931.30500	0.01869
2929.24506	0.01874
2927.18511	0.01882
2925.12516	0.01893
2923.06521	0.01900
2921.00527	0.01903
2918.94532	0.01903
2916.88537	0.01900
2914.82543	0.01890
2912.76548	0.01875
2910.70553	0.01857
2908.64558	0.01837
2906.58564	0.01829
2904.52569	0.01828
2902.46574	0.01818
2900.40579	0.01798
2898.34585	0.01783
2896.28590	0.01779
2894.22595	0.01779
2892.16601	0.01779
2890.10606	0.01774
2888.04611	0.01770
2885.98616	0.01770
2883.92622	0.01766
2881.86627	0.01765
2879.80632	0.01769
2877.74637	0.01770
2875.68643	0.01767
2873.62648	0.01765
2871.56653	0.01763
2869.50658	0.01763
2867.44664	0.01766
2865.38669	0.01762
2863.32674	0.01756
2861.26680	0.01752
2859.20685	0.01752
2857.14690	0.01758
2855.08695	0.01770
2853.02701	0.01781
2850.96706	0.01786
2848.90711	0.01780
2846.84716	0.01763
2844.78722	0.01745
2842.72727	0.01735
2840.66732	0.01726
2838.60738	0.01715
2836.54743	0.01706
2834.48748	0.01696
2832.42753	0.01687
2830.36759	0.01682
2828.30764	0.01682
2826.24769	0.01684
2824.18774	0.01679
2822.12780	0.01671
2820.06785	0.01666
2818.00790	0.01664
2815.94796	0.01660
2813.88801	0.01656
2811.82806	0.01650
2809.76811	0.01645
2807.70817	0.01641
2805.64822	0.01639
2803.58827	0.01639
2801.52832	0.01640
2799.46838	0.01639
2797.40843	0.01639
2795.34848	0.01639
2793.28853	0.01635
2791.22859	0.01633
2789.16864	0.01635
2787.10869	0.01632
2785.04875	0.01623
2782.98880	0.01620
2780.92885	0.01625
2778.86890	0.01629
2776.80896	0.01627
2774.74901	0.01624
2772.68906	0.01622
2770.62911	0.01616
2768.56917	0.01606
2766.50922	0.01603
2764.44927	0.01606
2762.38933	0.01607
2760.32938	0.01608
2758.26943	0.01610
2756.20948	0.01609
2754.14954	0.01605
2752.08959	0.01605
2750.02964	0.01603
2747.96969	0.01595
2745.90975	0.01590
2743.84980	0.01590
2741.78985	0.01588
2739.72991	0.01589
2737.66996	0.01595
2735.61001	0.01597
2733.55006	0.01594
2731.49012	0.01589
2729.43017	0.01586
2727.37022	0.01588
2725.31027	0.01589
2723.25033	0.01588
2721.19038	0.01586
2719.13043	0.01586
2717.07048	0.01585
2715.01054	0.01584
2712.95059	0.01584
2710.89064	0.01583
2708.83070	0.01578
2706.77075	0.01574
2704.71080	0.01575
2702.65085	0.01580
2700.59091	0.01580
2698.53096	0.01573
2696.47101	0.01567
2694.41106	0.01564
2692.35112	0.01560
2690.29117	0.01560
2688.23122	0.01564
2686.17128	0.01570
2684.11133	0.01574
2682.05138	0.01573
2679.99143	0.01570
2677.93149	0.01567
2675.87154	0.01564
2673.81159	0.01562
2671.75164	0.01564
2669.69170	0.01570
2667.63175	0.01576
2665.57180	0.01582
2663.51186	0.01588
2661.45191	0.01594
2659.39196	0.01604
2657.33201	0.01615
2655.27207	0.01619
2653.21212	0.01611
2651.15217	0.01604
2649.09222	0.01608
2647.03228	0.01613
2644.97233	0.01607
2642.91238	0.01595
2640.85243	0.01584
2638.79249	0.01579
2636.73254	0.01578
2634.67259	0.01579
2632.61265	0.01576
2630.55270	0.01566
2628.49275	0.01556
2626.43280	0.01550
2624.37286	0.01549
2622.31291	0.01552
2620.25296	0.01549
2618.19301	0.01538
2616.13307	0.01530
2614.07312	0.01524
2612.01317	0.01525
2609.95323	0.01526
2607.89328	0.01521
2605.83333	0.01517
2603.77338	0.01516
2601.71344	0.01509
2599.65349	0.01503
2597.59354	0.01503
2595.53359	0.01504
2593.47365	0.01503
2591.41370	0.01498
2589.35375	0.01491
2587.29381	0.01487
2585.23386	0.01484
2583.17391	0.01477
2581.11396	0.01466
2579.05402	0.01455
2576.99407	0.01455
2574.93412	0.01459
2572.87417	0.01456
2570.81423	0.01452
2568.75428	0.01449
2566.69433	0.01449
2564.63438	0.01454
2562.57444	0.01458
2560.51449	0.01455
2558.45454	0.01453
2556.39460	0.01448
2554.33465	0.01435
2552.27470	0.01426
2550.21475	0.01429
2548.15481	0.01433
2546.09486	0.01433
2544.03491	0.01435
2541.97496	0.01435
2539.91502	0.01426
2537.85507	0.01417
2535.79512	0.01417
2533.73518	0.01415
2531.67523	0.01404
2529.61528	0.01399
2527.55533	0.01405
2525.49539	0.01412
2523.43544	0.01418
2521.37549	0.01419
2519.31554	0.01411
2517.25560	0.01405
2515.19565	0.01399
2513.13570	0.01390
2511.07576	0.01390
2509.01581	0.01398
2506.95586	0.01401
2504.89591	0.01399
2502.83597	0.01403
2500.77602	0.01410
2498.71607	0.01411
2496.65612	0.01403
2494.59618	0.01395
2492.53623	0.01390
2490.47628	0.01387
2488.41633	0.01385
2486.35639	0.01387
2484.29644	0.01388
2482.23649	0.01389
2480.17655	0.01389
2478.11660	0.01385
2476.05665	0.01376
2473.99670	0.01374
2471.93676	0.01382
2469.87681	0.01392
2467.81686	0.01400
2465.75691	0.01403
2463.69697	0.01398
2461.63702	0.01388
2459.57707	0.01387
2457.51713	0.01393
2455.45718	0.01392
2453.39723	0.01392
2451.33728	0.01395
2449.27734	0.01390
2447.21739	0.01386
2445.15744	0.01390
2443.09749	0.01392
2441.03755	0.01384
2438.97760	0.01375
2436.91765	0.01373
2434.85771	0.01374
2432.79776	0.01368
2430.73781	0.01355
2428.67786	0.01346
2426.61792	0.01339
2424.55797	0.01334
2422.49802	0.01331
2420.43807	0.01332
2418.37813	0.01336
2416.31818	0.01338
2414.25823	0.01336
2412.19828	0.01338
2410.13834	0.01338
2408.07839	0.01331
2406.01844	0.01320
2403.95850	0.01312
2401.89855	0.01311
2399.83860	0.01310
2397.77865	0.01308
2395.71871	0.01301
2393.65876	0.01296
2391.59881	0.01300
2389.53886	0.01306
2387.47892	0.01311
2385.41897	0.01317
2383.35902	0.01321
2381.29908	0.01319
2379.23913	0.01319
2377.17918	0.01321
2375.11923	0.01317
2373.05929	0.01309
2370.99934	0.01307
2368.93939	0.01298
2366.87944	0.01286
2364.81950	0.01292
2362.75955	0.01297
2360.69960	0.01283
2358.63966	0.01275
2356.57971	0.01287
2354.51976	0.01310
2352.45981	0.01334
2350.39987	0.01352
2348.33992	0.01360
2346.27997	0.01355
2344.22002	0.01337
2342.16008	0.01310
2340.10013	0.01297
2338.04018	0.01303
2335.98023	0.01309
2333.92029	0.01308
2331.86034	0.01313
2329.80039	0.01342
2327.74045	0.01412
2325.68050	0.01492
2323.62055	0.01509
2321.56060	0.01471
2319.50066	0.01438
2317.44071	0.01424
2315.38076	0.01420
2313.32081	0.01421
2311.26087	0.01419
2309.20092	0.01409
2307.14097	0.01403
2305.08103	0.01403
2303.02108	0.01399
2300.96113	0.01394
2298.90118	0.01391
2296.84124	0.01391
2294.78129	0.01402
2292.72134	0.01420
2290.66139	0.01434
2288.60145	0.01443
2286.54150	0.01444
2284.48155	0.01425
2282.42161	0.01394
2280.36166	0.01375
2278.30171	0.01371
2276.24176	0.01363
2274.18182	0.01346
2272.12187	0.01327
2270.06192	0.01318
2268.00197	0.01318
2265.94203	0.01311
2263.88208	0.01301
2261.82213	0.01304
2259.76218	0.01315
2257.70224	0.01306
2255.64229	0.01276
2253.58234	0.01255
2251.52240	0.01253
2249.46245	0.01260
2247.40250	0.01266
2245.34255	0.01268
2243.28261	0.01271
2241.22266	0.01281
2239.16271	0.01280
2237.10276	0.01253
2235.04282	0.01234
2232.98287	0.01248
2230.92292	0.01267
2228.86298	0.01267
2226.80303	0.01252
2224.74308	0.01230
2222.68313	0.01207
2220.62319	0.01193
2218.56324	0.01179
2216.50329	0.01166
2214.44334	0.01173
2212.38340	0.01189
2210.32345	0.01191
2208.26350	0.01187
2206.20356	0.01193
2204.14361	0.01193
2202.08366	0.01168
2200.02371	0.01159
2197.96377	0.01197
2195.90382	0.01234
2193.84387	0.01244
2191.78392	0.01249
2189.72398	0.01253
2187.66403	0.01228
2185.60408	0.01176
2183.54413	0.01125
2181.48419	0.01106
2179.42424	0.01113
2177.36429	0.01103
2175.30435	0.01080
2173.24440	0.01092
2171.18445	0.01141
2169.12450	0.01195
2167.06456	0.01221
2165.00461	0.01204
2162.94466	0.01151
2160.88471	0.00986
2158.82477	0.00748
2156.76482	0.00662
2154.70487	0.00717
2152.64493	0.00766
2150.58498	0.00796
2148.52503	0.00837
2146.46508	0.00883
2144.40514	0.00922
2142.34519	0.00938
2140.28524	0.00945
2138.22529	0.00954
2136.16535	0.00937
2134.10540	0.00920
2132.04545	0.00944
2129.98551	0.00985
2127.92556	0.01019
2125.86561	0.01048
2123.80566	0.01072
2121.74572	0.01085
2119.68577	0.01098
2117.62582	0.01131
2115.56587	0.01164
2113.50593	0.01160
2111.44598	0.01144
2109.38603	0.01154
2107.32608	0.01179
2105.26614	0.01186
2103.20619	0.01181
2101.14624	0.01179
2099.08630	0.01167
2097.02635	0.01138
2094.96640	0.01116
2092.90645	0.01121
2090.84651	0.01135
2088.78656	0.01145
2086.72661	0.01157
2084.66666	0.01177
2082.60672	0.01194
2080.54677	0.01203
2078.48682	0.01205
2076.42688	0.01195
2074.36693	0.01165
2072.30698	0.01133
2070.24703	0.01123
2068.18709	0.01133
2066.12714	0.01134
2064.06719	0.01126
2062.00724	0.01121
2059.94730	0.01119
2057.88735	0.01120
2055.82740	0.01120
2053.76746	0.01157
2051.70751	0.01218
2049.64756	0.01223
2047.58761	0.01174
2045.52767	0.01122
2043.46772	0.01086
2041.40777	0.01087
2039.34782	0.01113
2037.28788	0.01108
2035.22793	0.01060
2033.16798	0.01001
2031.10803	0.00948
2029.04809	0.00913
2026.98814	0.00912
2024.92819	0.00935
2022.86825	0.00944
2020.80830	0.00938
2018.74835	0.00941
2016.68840	0.00945
2014.62846	0.00957
2012.56851	0.00975
2010.50856	0.00959
2008.44861	0.00902
2006.38867	0.00865
2004.32872	0.00902
2002.26877	0.00971
2000.20883	0.01017
1998.14888	0.01044
1996.08893	0.01067
1994.02898	0.01074
1991.96904	0.01071
1989.90909	0.01090
1987.84914	0.01114
1985.78919	0.01111
1983.72925	0.01125
1981.66930	0.01167
1979.60935	0.01133
1977.54941	0.01006
1975.48946	0.00910
1973.42951	0.00886
1971.36956	0.00910
1969.30962	0.00942
1967.24967	0.00941
1965.18972	0.00928
1963.12977	0.00940
1961.06983	0.00943
1959.00988	0.00926
1956.94993	0.00931
1954.88998	0.00963
1952.83004	0.00993
1950.77009	0.01010
1948.71014	0.01023
1946.65020	0.01024
1944.59025	0.01015
1942.53030	0.01007
1940.47035	0.00997
1938.41041	0.00993
1936.35046	0.01002
1934.29051	0.01018
1932.23056	0.01044
1930.17062	0.01068
1928.11067	0.01068
1926.05072	0.01063
1923.99078	0.01074
1921.93083	0.01088
1919.87088	0.01092
1917.81093	0.01089
1915.75099	0.01093
1913.69104	0.01103
1911.63109	0.01111
1909.57114	0.01117
1907.51120	0.01124
1905.45125	0.01129
1903.39130	0.01141
1901.33136	0.01159
1899.27141	0.01172
1897.21146	0.01181
1895.15151	0.01183
1893.09157	0.01184
1891.03162	0.01192
1888.97167	0.01196
1886.91172	0.01190
1884.85178	0.01193
1882.79183	0.01206
1880.73188	0.01211
1878.67193	0.01209
1876.61199	0.01210
1874.55204	0.01213
1872.49209	0.01222
1870.43215	0.01234
1868.37220	0.01231
1866.31225	0.01215
1864.25230	0.01205
1862.19236	0.01204
1860.13241	0.01208
1858.07246	0.01208
1856.01251	0.01194
1853.95257	0.01179
1851.89262	0.01176
1849.83267	0.01179
1847.77273	0.01182
1845.71278	0.01186
1843.65283	0.01187
1841.59288	0.01178
1839.53294	0.01167
1837.47299	0.01160
1835.41304	0.01154
1833.35309	0.01152
1831.29315	0.01165
1829.23320	0.01182
1827.17325	0.01188
1825.11331	0.01190
1823.05336	0.01185
1820.99341	0.01166
1818.93346	0.01144
1816.87352	0.01138
1814.81357	0.01152
1812.75362	0.01175
1810.69367	0.01187
1808.63373	0.01191
1806.57378	0.01198
1804.51383	0.01211
1802.45388	0.01225
1800.39394	0.01228
1798.33399	0.01225
1796.27404	0.01235
1794.21410	0.01252
1792.15415	0.01258
1790.09420	0.01247
1788.03425	0.01237
1785.97431	0.01235
1783.91436	0.01236
1781.85441	0.01241
1779.79446	0.01243
1777.73452	0.01243
1775.67457	0.01255
1773.61462	0.01275
1771.55468	0.01282
1769.49473	0.01273
1767.43478	0.01259
1765.37483	0.01249
1763.31489	0.01256
1761.25494	0.01272
1759.19499	0.01289
1757.13504	0.01304
1755.07510	0.01307
1753.01515	0.01318
1750.95520	0.01356
1748.89526	0.01398
1746.83531	0.01424
1744.77536	0.01451
1742.71541	0.01485
1740.65547	0.01527
1738.59552	0.01567
1736.53557	0.01602
1734.47562	0.01636
1732.41568	0.01644
1730.35573	0.01619
1728.29578	0.01584
1726.23583	0.01557
1724.17589	0.01542
1722.11594	0.01536
1720.05599	0.01544
1717.99605	0.01568
1715.93610	0.01576
1713.87615	0.01562
1711.81620	0.01553
1709.75626	0.01558
1707.69631	0.01574
1705.63636	0.01590
1703.57641	0.01603
1701.51647	0.01629
1699.45652	0.01669
1697.39657	0.01683
1695.33663	0.01664
1693.27668	0.01650
1691.21673	0.01669
1689.15678	0.01705
1687.09684	0.01743
1685.03689	0.01790
1682.97694	0.01820
1680.91699	0.01815
1678.85705	0.01815
1676.79710	0.01833
1674.73715	0.01860
1672.67721	0.01884
1670.61726	0.01909
1668.55731	0.01921
1666.49736	0.01922
1664.43742	0.01935
1662.37747	0.01957
1660.31752	0.01972
1658.25757	0.01994
1656.19763	0.02033
1654.13768	0.02076
1652.07773	0.02085
1650.01778	0.02097
1647.95784	0.02128
1645.89789	0.02134
1643.83794	0.02120
1641.77800	0.02120
1639.71805	0.02142
1637.65810	0.02180
1635.59815	0.02203
1633.53821	0.02189
1631.47826	0.02183
1629.41831	0.02197
1627.35836	0.02219
1625.29842	0.02240
1623.23847	0.02251
1621.17852	0.02251
1619.11858	0.02259
1617.05863	0.02264
1614.99868	0.02244
1612.93873	0.02232
1610.87879	0.02234
1608.81884	0.02234
1606.75889	0.02225
1604.69894	0.02218
1602.63900	0.02216
1600.57905	0.02212
1598.51910	0.02209
1596.45916	0.02207
1594.39921	0.02201
1592.33926	0.02190
1590.27931	0.02177
1588.21937	0.02168
1586.15942	0.02163
1584.09947	0.02159
1582.03952	0.02155
1579.97958	0.02158
1577.91963	0.02166
1575.85968	0.02155
1573.79973	0.02129
1571.73979	0.02124
1569.67984	0.02121
1567.61989	0.02102
1565.55995	0.02090
1563.50000	0.02088
1561.44005	0.02103
1559.38010	0.02127
1557.32016	0.02095
1555.26021	0.02051
1553.20026	0.02021
1551.14031	0.02005
1549.08037	0.01995
1547.02042	0.01998
1544.96047	0.02022
1542.90053	0.02047
1540.84058	0.02037
1538.78063	0.01976
1536.72068	0.01945
1534.66074	0.01947
1532.60079	0.01938
1530.54084	0.01919
1528.48089	0.01918
1526.42095	0.01923
1524.36100	0.01921
1522.30105	0.01918
1520.24111	0.01903
1518.18116	0.01884
1516.12121	0.01862
1514.06126	0.01835
1512.00132	0.01831
1509.94137	0.01858
1507.88142	0.01880
1505.82147	0.01821
1503.76153	0.01763
1501.70158	0.01750
1499.64163	0.01755
1497.58168	0.01753
1495.52174	0.01730
1493.46179	0.01715
1491.40184	0.01727
1489.34190	0.01737
1487.28195	0.01711
1485.22200	0.01678
1483.16205	0.01663
1481.10211	0.01661
1479.04216	0.01668
1476.98221	0.01690
1474.92226	0.01726
1472.86232	0.01752
1470.80237	0.01752
1468.74242	0.01751
1466.68248	0.01771
1464.62253	0.01788
1462.56258	0.01787
1460.50263	0.01797
1458.44269	0.01830
1456.38274	0.01839
1454.32279	0.01813
1452.26284	0.01796
1450.20290	0.01792
1448.14295	0.01793
1446.08300	0.01783
1444.02306	0.01769
1441.96311	0.01766
1439.90316	0.01777
1437.84321	0.01800
1435.78327	0.01809
1433.72332	0.01802
1431.66337	0.01802
1429.60342	0.01807
1427.54348	0.01810
1425.48353	0.01819
1423.42358	0.01835
1421.36363	0.01854
1419.30369	0.01873
1417.24374	0.01868
1415.18379	0.01849
1413.12385	0.01840
1411.06390	0.01836
1409.00395	0.01832
1406.94400	0.01837
1404.88406	0.01847
1402.82411	0.01853
1400.76416	0.01865
1398.70421	0.01882
1396.64427	0.01893
1394.58432	0.01884
1392.52437	0.01862
1390.46443	0.01853
1388.40448	0.01859
1386.34453	0.01859
1384.28458	0.01846
1382.22464	0.01844
1380.16469	0.01853
1378.10474	0.01863
1376.04479	0.01874
1373.98485	0.01872
1371.92490	0.01852
1369.86495	0.01840
1367.80501	0.01835
1365.74506	0.01835
1363.68511	0.01841
1361.62516	0.01836
1359.56522	0.01814
1357.50527	0.01798
1355.44532	0.01791
1353.38537	0.01783
1351.32543	0.01774
1349.26548	0.01764
1347.20553	0.01754
1345.14558	0.01748
1343.08564	0.01754
1341.02569	0.01771
1338.96574	0.01777
1336.90580	0.01760
1334.84585	0.01741
1332.78590	0.01726
1330.72595	0.01717
1328.66601	0.01716
1326.60606	0.01717
1324.54611	0.01718
1322.48616	0.01720
1320.42622	0.01726
1318.36627	0.01730
1316.30632	0.01729
1314.24638	0.01730
1312.18643	0.01727
1310.12648	0.01724
1308.06653	0.01724
1306.00659	0.01725
1303.94664	0.01728
1301.88669	0.01734
1299.82674	0.01742
1297.76680	0.01750
1295.70685	0.01754
1293.64690	0.01759
1291.58696	0.01771
1289.52701	0.01786
1287.46706	0.01802
1285.40711	0.01818
1283.34717	0.01834
1281.28722	0.01846
1279.22727	0.01858
1277.16732	0.01871
1275.10738	0.01886
1273.04743	0.01905
1270.98748	0.01920
1268.92753	0.01930
1266.86759	0.01941
1264.80764	0.01955
1262.74769	0.01969
1260.68775	0.01984
1258.62780	0.01999
1256.56785	0.02016
1254.50790	0.02037
1252.44796	0.02063
1250.38801	0.02090
1248.32806	0.02119
1246.26811	0.02147
1244.20817	0.02171
1242.14822	0.02196
1240.08827	0.02228
1238.02833	0.02262
1235.96838	0.02294
1233.90843	0.02323
1231.84848	0.02357
1229.78854	0.02395
1227.72859	0.02433
1225.66864	0.02477
1223.60869	0.02531
1221.54875	0.02599
1219.48880	0.02678
1217.42885	0.02760
1215.36891	0.02846
1213.30896	0.02939
1211.24901	0.03038
1209.18906	0.03140
1207.12912	0.03246
1205.06917	0.03348
1203.00922	0.03448
1200.94927	0.03549
1198.88933	0.03649
1196.82938	0.03745
1194.76943	0.03843
1192.70949	0.03948
1190.64954	0.04059
1188.58959	0.04176
1186.52964	0.04297
1184.46970	0.04423
1182.40975	0.04557
1180.34980	0.04703
1178.28985	0.04861
1176.22991	0.05031
1174.16996	0.05218
1172.11001	0.05424
1170.05006	0.05643
1167.99012	0.05866
1165.93017	0.06075
1163.87022	0.06227
1161.81028	0.06270
1159.75033	0.06201
1157.69038	0.06097
1155.63043	0.06045
1153.57049	0.06073
1151.51054	0.06161
1149.45059	0.06281
1147.39064	0.06414
1145.33070	0.06551
1143.27075	0.06693
1141.21080	0.06836
1139.15086	0.06982
1137.09091	0.07139
1135.03096	0.07309
1132.97101	0.07480
1130.91107	0.07649
1128.85112	0.07819
1126.79117	0.07989
1124.73122	0.08168
1122.67128	0.08355
1120.61133	0.08538
1118.55138	0.08715
1116.49144	0.08891
1114.43149	0.09070
1112.37154	0.09243
1110.31159	0.09414
1108.25165	0.09595
1106.19170	0.09788
1104.13175	0.09982
1102.07180	0.10173
1100.01186	0.10365
1097.95191	0.10563
1095.89196	0.10761
1093.83201	0.10950
1091.77207	0.11129
1089.71212	0.11299
1087.65217	0.11462
1085.59223	0.11611
1083.53228	0.11744
1081.47233	0.11864
1079.41238	0.11970
1077.35244	0.12060
1075.29249	0.12146
1073.23254	0.12233
1071.17259	0.12325
1069.11265	0.12439
1067.05270	0.12581
1064.99275	0.12745
1062.93281	0.12916
1060.87286	0.13070
1058.81291	0.13196
1056.75296	0.13309
1054.69302	0.13413
1052.63307	0.13497
1050.57312	0.13566
1048.51317	0.13631
1046.45323	0.13696
1044.39328	0.13767
1042.33333	0.13843
1040.27339	0.13919
1038.21344	0.13991
1036.15349	0.14048
1034.09354	0.14084
1032.03360	0.14103
1029.97365	0.14119
1027.91370	0.14119
1025.85375	0.14094
1023.79381	0.14057
1021.73386	0.14023
1019.67391	0.13992
1017.61396	0.13965
1015.55402	0.13943
1013.49407	0.13923
1011.43412	0.13902
1009.37418	0.13879
1007.31423	0.13846
1005.25428	0.13791
1003.19433	0.13720
1001.13439	0.13643
999.07444	0.13561
997.01449	0.13469
994.95454	0.13373
992.89460	0.13276
990.83465	0.13179
988.77470	0.13082
986.71476	0.12982
984.65481	0.12875
982.59486	0.12757
980.53491	0.12633
978.47497	0.12505
976.41502	0.12366
974.35507	0.12220
972.29512	0.12076
970.23518	0.11931
968.17523	0.11782
966.11528	0.11637
964.05534	0.11493
961.99539	0.11343
959.93544	0.11189
957.87549	0.11038
955.81555	0.10893
953.75560	0.10754
951.69565	0.10620
949.63570	0.10495
947.57576	0.10377
945.51581	0.10265
943.45586	0.10155
941.39591	0.10043
939.33597	0.09933
937.27602	0.09824
935.21607	0.09716
933.15613	0.09609
931.09618	0.09506
929.03623	0.09409
926.97628	0.09312
924.91634	0.09213
922.85639	0.09120
920.79644	0.09037
918.73649	0.08956
916.67655	0.08873
914.61660	0.08789
912.55665	0.08695
910.49671	0.08581
908.43676	0.08447
906.37681	0.08307
904.31686	0.08167
902.25692	0.08019
900.19697	0.07858
898.13702	0.07698
896.07707	0.07554
894.01713	0.07421
891.95718	0.07290
889.89723	0.07155
887.83729	0.07019
885.77734	0.06895
883.71739	0.06777
881.65744	0.06654
879.59750	0.06531
877.53755	0.06416
875.47760	0.06304
873.41765	0.06187
871.35771	0.06058
869.29776	0.05923
867.23781	0.05795
865.17786	0.05681
863.11792	0.05571
861.05797	0.05456
858.99802	0.05338
856.93808	0.05223
854.87813	0.05118
852.81818	0.05020
850.75823	0.04929
848.69829	0.04844
846.63834	0.04759
844.57839	0.04680
842.51844	0.04620
840.45850	0.04574
838.39855	0.04536
836.33860	0.04505
834.27866	0.04473
832.21871	0.04442
830.15876	0.04416
828.09881	0.04397
826.03887	0.04386
823.97892	0.04387
821.91897	0.04406
819.85902	0.04453
817.79908	0.04537
815.73913	0.04663
813.67918	0.04854
811.61924	0.05157
809.55929	0.05608
807.49934	0.06217
805.43939	0.06958
803.37945	0.07756
801.31950	0.08521
799.25955	0.09155
797.19960	0.09568
795.13966	0.09729
793.07971	0.09711
791.01976	0.09644
788.95981	0.09627
786.89987	0.09718
784.83992	0.09945
782.77997	0.10297
780.72003	0.10699
778.66008	0.11025
776.60013	0.11181
774.54018	0.11137
772.48024	0.10936
770.42029	0.10657
768.36034	0.10360
766.30039	0.10068
764.24045	0.09792
762.18050	0.09534
760.12055	0.09286
758.06061	0.09047
756.00066	0.08818
753.94071	0.08606
751.88076	0.08409
749.82082	0.08223
747.76087	0.08052
745.70092	0.07890
743.64097	0.07733
741.58103	0.07581
739.52108	0.07436
737.46113	0.07305
735.40119	0.07190
733.34124	0.07093
731.28129	0.07003
729.22134	0.06911
727.16140	0.06832
725.10145	0.06768
723.04150	0.06698
720.98155	0.06614
718.92161	0.06526
716.86166	0.06443
714.80171	0.06370
712.74176	0.06309
710.68182	0.06270
708.62187	0.06263
706.56192	0.06295
704.50198	0.06382
702.44203	0.06578
700.38208	0.06945
698.32213	0.07483
696.26219	0.08037
694.20224	0.08340
692.14229	0.08274
690.08234	0.07979
688.02240	0.07630
685.96245	0.07297
683.90250	0.07011
681.84256	0.06794
679.78261	0.06616
677.72266	0.06449
675.66271	0.06298
673.60277	0.06172
671.54282	0.06076
669.48287	0.05989
667.42292	0.05873
665.36298	0.05774
663.30303	0.05707
661.24308	0.05654
659.18314	0.05607
657.12319	0.05556
655.06324	0.05522
653.00329	0.05517
650.94335	0.05521
648.88340	0.05521
646.82345	0.05508
644.76350	0.05470
642.70356	0.05406
640.64361	0.05344
638.58366	0.05305
636.52371	0.05269
634.46377	0.05222
632.40382	0.05178
630.34387	0.05147
628.28393	0.05130
626.22398	0.05122
624.16403	0.05107
622.10408	0.05078
620.04414	0.05061
617.98419	0.05066
615.92424	0.05087
613.86429	0.05119
611.80435	0.05154
609.74440	0.05195
607.68445	0.05235
605.62451	0.05256
603.56456	0.05275
601.50461	0.05302
599.44466	0.05325
597.38472	0.05340
595.32477	0.05360
593.26482	0.05395
591.20487	0.05428
589.14493	0.05447
587.08498	0.05487
585.02503	0.05545
582.96509	0.05588
580.90514	0.05621
578.84519	0.05656
576.78524	0.05694
574.72530	0.05724
572.66535	0.05750
570.60540	0.05794
568.54545	0.05853
566.48551	0.05914
564.42556	0.05969
562.36561	0.06026
560.30566	0.06100
558.24572	0.06179
556.18577	0.06263
554.12582	0.06379
552.06588	0.06538
550.00593	0.06735
547.94598	0.06978
545.88603	0.07270
543.82609	0.07610
541.76614	0.07992
539.70619	0.08405
537.64624	0.08813
535.58630	0.09195
533.52635	0.09552
531.46640	0.09866
529.40646	0.10125
527.34651	0.10362
525.28656	0.10592
523.22661	0.10797
521.16667	0.10959
519.10672	0.11071
517.04677	0.11129
514.98682	0.11125
512.92688	0.11073
510.86693	0.11010
508.80698	0.10964
506.74704	0.10979
504.68709	0.11092
502.62714	0.11330
500.56719	0.11686
498.50725	0.12077
496.44730	0.12451
494.38735	0.12827
492.32740	0.13227
490.26746	0.13624
488.20751	0.14004
486.14756	0.14416
484.08761	0.14891
482.02767	0.15443
479.96772	0.16041
477.90777	0.16625
475.84783	0.17174
473.78788	0.17725
471.72793	0.18309
469.66798	0.18863
467.60804	0.19370
465.54809	0.19808
463.48814	0.20132
461.42819	0.20391
459.36825	0.20646
457.30830	0.20895
455.24835	0.21064
453.18841	0.21177
451.12846	0.21289
449.06851	0.21350
447.00856	0.21329
444.94862	0.21250
442.88867	0.21132
440.82872	0.20991
438.76877	0.20909
436.70883	0.20907
434.64888	0.20846
432.58893	0.20639
430.52899	0.20377
428.46904	0.20131
426.40909	0.19913
424.34914	0.19739
422.28920	0.19558
420.22925	0.19212
418.16930	0.18595
416.10935	0.17961
414.04941	0.17316
411.98946	0.16534
409.92951	0.15622
407.86956	0.14670
405.80962	0.14006
403.74967	0.14003
401.68972	0.14782
399.62978	0.16384
