3996.29776	0.03306
3994.23781	0.03301
3992.17786	0.03299
3990.11791	0.03308
3988.05797	0.03316
3985.99802	0.03310
3983.93807	0.03302
3981.87813	0.03303
3979.81818	0.03308
3977.75823	0.03309
3975.69828	0.03311
3973.63834	0.03312
3971.57839	0.03309
3969.51844	0.03304
3967.45849	0.03303
3965.39855	0.03302
3963.33860	0.03304
3961.27865	0.03305
3959.21870	0.03300
3957.15876	0.03295
3955.09881	0.03295
3953.03886	0.03302
3950.97892	0.03316
3948.91897	0.03323
3946.85902	0.03313
3944.79907	0.03315
3942.73913	0.03331
3940.67918	0.03324
3938.61923	0.03304
3936.55928	0.03303
3934.49934	0.03327
3932.43939	0.03352
3930.37944	0.03336
3928.31950	0.03303
3926.25955	0.03294
3924.19960	0.03302
3922.13965	0.03300
3920.07971	0.03301
3918.01976	0.03312
3915.95981	0.03307
3913.89986	0.03285
3911.83992	0.03269
3909.77997	0.03269
3907.72002	0.03292
3905.66008	0.03340
3903.60013	0.03382
3901.54018	0.03394
3899.48023	0.03372
3897.42029	0.03328
3895.36034	0.03300
3893.30039	0.03311
3891.24044	0.03317
3889.18050	0.03293
3887.12055	0.03296
3885.06060	0.03328
3883.00065	0.03339
3880.94071	0.03329
3878.88076	0.03295
3876.82081	0.03273
3874.76087	0.03293
3872.70092	0.03326
3870.64097	0.03356
3868.58102	0.03357
3866.52108	0.03338
3864.46113	0.03341
3862.40118	0.03332
3860.34123	0.03303
3858.28129	0.03292
3856.22134	0.03322
3854.16139	0.03396
3852.10145	0.03391
3850.04150	0.03300
3847.98155	0.03249
3845.92160	0.03247
3843.86166	0.03271
3841.80171	0.03304
3839.74176	0.03334
3837.68181	0.03335
3835.62187	0.03306
3833.56192	0.03275
3831.50197	0.03246
3829.44203	0.03230
3827.38208	0.03238
3825.32213	0.03250
3823.26218	0.03268
3821.20224	0.03305
3819.14229	0.03299
3817.08234	0.03263
3815.02239	0.03235
3812.96245	0.03202
3810.90250	0.03178
3808.84255	0.03187
3806.78260	0.03224
3804.72266	0.03251
3802.66271	0.03286
3800.60276	0.03307
3798.54282	0.03277
3796.48287	0.03240
3794.42292	0.03207
3792.36297	0.03179
3790.30303	0.03160
3788.24308	0.03158
3786.18313	0.03180
3784.12318	0.03195
3782.06324	0.03191
3780.00329	0.03193
3777.94334	0.03185
3775.88340	0.03158
3773.82345	0.03145
3771.76350	0.03165
3769.70355	0.03202
3767.64361	0.03210
3765.58366	0.03195
3763.52371	0.03173
3761.46376	0.03166
3759.40382	0.03185
3757.34387	0.03199
3755.28392	0.03203
3753.22398	0.03237
3751.16403	0.03295
3749.10408	0.03299
3747.04413	0.03272
3744.98419	0.03261
3742.92424	0.03242
3740.86429	0.03211
3738.80434	0.03203
3736.74440	0.03231
3734.68445	0.03251
3732.62450	0.03208
3730.56455	0.03158
3728.50461	0.03143
3726.44466	0.03156
3724.38471	0.03171
3722.32477	0.03163
3720.26482	0.03142
3718.20487	0.03128
3716.14492	0.03127
3714.08498	0.03150
3712.02503	0.03195
3709.96508	0.03200
3707.90513	0.03167
3705.84519	0.03156
3703.78524	0.03177
3701.72529	0.03207
3699.66535	0.03213
3697.60540	0.03213
3695.54545	0.03221
3693.48550	0.03237
3691.42556	0.03268
3689.36561	0.03282
3687.30566	0.03247
3685.24571	0.03202
3683.18577	0.03177
3681.12582	0.03177
3679.06587	0.03196
3677.00593	0.03245
3674.94598	0.03296
3672.88603	0.03293
3670.82608	0.03298
3668.76614	0.03288
3666.70619	0.03228
3664.64624	0.03189
3662.58629	0.03192
3660.52635	0.03211
3658.46640	0.03232
3656.40645	0.03257
3654.34651	0.03276
3652.28656	0.03313
3650.22661	0.03399
3648.16666	0.03439
3646.10672	0.03369
3644.04677	0.03306
3641.98682	0.03284
3639.92687	0.03284
3637.86693	0.03305
3635.80698	0.03336
3633.74703	0.03348
3631.68708	0.03363
3629.62714	0.03417
3627.56719	0.03445
3625.50724	0.03411
3623.44730	0.03391
3621.38735	0.03415
3619.32740	0.03466
3617.26745	0.03489
3615.20751	0.03493
3613.14756	0.03491
3611.08761	0.03477
3609.02766	0.03471
3606.96772	0.03454
3604.90777	0.03413
3602.84782	0.03391
3600.78788	0.03404
3598.72793	0.03424
3596.66798	0.03439
3594.60803	0.03443
3592.54809	0.03432
3590.48814	0.03439
3588.42819	0.03477
3586.36824	0.03488
3584.30830	0.03458
3582.24835	0.03439
3580.18840	0.03432
3578.12846	0.03427
3576.06851	0.03430
3574.00856	0.03437
3571.94861	0.03447
3569.88867	0.03487
3567.82872	0.03558
3565.76877	0.03580
3563.70882	0.03541
3561.64888	0.03515
3559.58893	0.03508
3557.52898	0.03498
3555.46903	0.03497
3553.40909	0.03509
3551.34914	0.03517
3549.28919	0.03531
3547.22925	0.03565
3545.16930	0.03575
3543.10935	0.03550
3541.04940	0.03537
3538.98946	0.03551
3536.92951	0.03562
3534.86956	0.03556
3532.80961	0.03558
3530.74967	0.03578
3528.68972	0.03599
3526.62977	0.03612
3524.56983	0.03622
3522.50988	0.03625
3520.44993	0.03622
3518.38998	0.03616
3516.33004	0.03609
3514.27009	0.03605
3512.21014	0.03615
3510.15019	0.03636
3508.09025	0.03647
3506.03030	0.03659
3503.97035	0.03679
3501.91041	0.03684
3499.85046	0.03674
3497.79051	0.03669
3495.73056	0.03668
3493.67062	0.03668
3491.61067	0.03672
3489.55072	0.03679
3487.49077	0.03688
3485.43083	0.03701
3483.37088	0.03717
3481.31093	0.03725
3479.25098	0.03717
3477.19104	0.03713
3475.13109	0.03724
3473.07114	0.03745
3471.01120	0.03757
3468.95125	0.03754
3466.89130	0.03748
3464.83135	0.03743
3462.77141	0.03740
3460.71146	0.03740
3458.65151	0.03746
3456.59156	0.03757
3454.53162	0.03764
3452.47167	0.03767
3450.41172	0.03778
3448.35178	0.03796
3446.29183	0.03802
3444.23188	0.03792
3442.17193	0.03785
3440.11199	0.03788
3438.05204	0.03794
3435.99209	0.03798
3433.93214	0.03799
3431.87220	0.03791
3429.81225	0.03788
3427.75230	0.03798
3425.69236	0.03807
3423.63241	0.03811
3421.57246	0.03819
3419.51251	0.03833
3417.45257	0.03841
3415.39262	0.03835
3413.33267	0.03824
3411.27272	0.03821
3409.21278	0.03822
3407.15283	0.03825
3405.09288	0.03839
3403.03293	0.03856
3400.97299	0.03862
3398.91304	0.03863
3396.85309	0.03866
3394.79315	0.03868
3392.73320	0.03872
3390.67325	0.03874
3388.61330	0.03875
3386.55336	0.03880
3384.49341	0.03884
3382.43346	0.03882
3380.37351	0.03879
3378.31357	0.03878
3376.25362	0.03874
3374.19367	0.03869
3372.13373	0.03869
3370.07378	0.03873
3368.01383	0.03875
3365.95388	0.03876
3363.89394	0.03876
3361.83399	0.03875
3359.77404	0.03875
3357.71409	0.03881
3355.65415	0.03889
3353.59420	0.03891
3351.53425	0.03884
3349.47431	0.03878
3347.41436	0.03876
3345.35441	0.03877
3343.29446	0.03875
3341.23452	0.03875
3339.17457	0.03883
3337.11462	0.03888
3335.05467	0.03875
3332.99473	0.03860
3330.93478	0.03860
3328.87483	0.03871
3326.81488	0.03879
3324.75494	0.03880
3322.69499	0.03875
3320.63504	0.03869
3318.57510	0.03862
3316.51515	0.03862
3314.45520	0.03868
3312.39525	0.03878
3310.33531	0.03883
3308.27536	0.03880
3306.21541	0.03875
3304.15546	0.03868
3302.09552	0.03861
3300.03557	0.03859
3297.97562	0.03859
3295.91568	0.03854
3293.85573	0.03852
3291.79578	0.03855
3289.73583	0.03854
3287.67589	0.03850
3285.61594	0.03845
3283.55599	0.03843
3281.49604	0.03847
3279.43610	0.03850
3277.37615	0.03849
3275.31620	0.03848
3273.25626	0.03853
3271.19631	0.03858
3269.13636	0.03855
3267.07641	0.03845
3265.01647	0.03836
3262.95652	0.03828
3260.89657	0.03820
3258.83662	0.03816
3256.77668	0.03816
3254.71673	0.03809
3252.65678	0.03804
3250.59683	0.03810
3248.53689	0.03813
3246.47694	0.03806
3244.41699	0.03801
3242.35705	0.03796
3240.29710	0.03784
3238.23715	0.03770
3236.17720	0.03762
3234.11726	0.03764
3232.05731	0.03770
3229.99736	0.03774
3227.93741	0.03774
3225.87747	0.03774
3223.81752	0.03772
3221.75757	0.03772
3219.69763	0.03771
3217.63768	0.03765
3215.57773	0.03761
3213.51778	0.03757
3211.45784	0.03751
3209.39789	0.03740
3207.33794	0.03732
3205.27799	0.03732
3203.21805	0.03729
3201.15810	0.03723
3199.09815	0.03723
3197.03821	0.03721
3194.97826	0.03710
3192.91831	0.03698
3190.85836	0.03694
3188.79842	0.03695
3186.73847	0.03698
3184.67852	0.03700
3182.61857	0.03702
3180.55863	0.03701
3178.49868	0.03697
3176.43873	0.03690
3174.37878	0.03676
3172.31884	0.03657
3170.25889	0.03654
3168.19894	0.03664
3166.13900	0.03669
3164.07905	0.03664
3162.01910	0.03656
3159.95915	0.03649
3157.89921	0.03639
3155.83926	0.03628
3153.77931	0.03623
3151.71936	0.03623
3149.65942	0.03624
3147.59947	0.03622
3145.53952	0.03613
3143.47958	0.03609
3141.41963	0.03611
3139.35968	0.03611
3137.29973	0.03608
3135.23979	0.03602
3133.17984	0.03593
3131.11989	0.03586
3129.05994	0.03578
3127.00000	0.03574
3124.94005	0.03574
3122.88010	0.03573
3120.82016	0.03575
3118.76021	0.03583
3116.70026	0.03585
3114.64031	0.03577
3112.58037	0.03562
3110.52042	0.03549
3108.46047	0.03544
3106.40052	0.03539
3104.34058	0.03532
3102.28063	0.03530
3100.22068	0.03531
3098.16073	0.03530
3096.10079	0.03525
3094.04084	0.03522
3091.98089	0.03524
3089.92095	0.03524
3087.86100	0.03519
3085.80105	0.03517
3083.74110	0.03519
3081.68116	0.03516
3079.62121	0.03514
3077.56126	0.03515
3075.50131	0.03506
3073.44137	0.03493
3071.38142	0.03487
3069.32147	0.03488
3067.26153	0.03487
3065.20158	0.03481
3063.14163	0.03476
3061.08168	0.03474
3059.02174	0.03471
3056.96179	0.03464
3054.90184	0.03456
3052.84189	0.03454
3050.78195	0.03454
3048.72200	0.03448
3046.66205	0.03441
3044.60211	0.03439
3042.54216	0.03436
3040.48221	0.03427
3038.42226	0.03425
3036.36232	0.03431
3034.30237	0.03432
3032.24242	0.03424
3030.18247	0.03416
3028.12253	0.03411
3026.06258	0.03408
3024.00263	0.03406
3021.94268	0.03408
3019.88274	0.03413
3017.82279	0.03406
3015.76284	0.03386
3013.70290	0.03374
3011.64295	0.03375
3009.58300	0.03380
3007.52305	0.03378
3005.46311	0.03368
3003.40316	0.03361
3001.34321	0.03365
2999.28326	0.03376
2997.22332	0.03381
2995.16337	0.03374
2993.10342	0.03363
2991.04348	0.03357
2988.98353	0.03359
2986.92358	0.03363
2984.86363	0.03365
2982.80369	0.03362
2980.74374	0.03359
2978.68379	0.03360
2976.62384	0.03361
2974.56390	0.03360
2972.50395	0.03357
2970.44400	0.03356
2968.38406	0.03361
2966.32411	0.03365
2964.26416	0.03366
2962.20421	0.03372
2960.14427	0.03375
2958.08432	0.03376
2956.02437	0.03381
2953.96442	0.03387
2951.90448	0.03392
2949.84453	0.03395
2947.78458	0.03398
2945.72463	0.03405
2943.66469	0.03417
2941.60474	0.03426
2939.54479	0.03434
2937.48485	0.03448
2935.42490	0.03468
2933.36495	0.03485
2931.30500	0.03499
2929.24506	0.03513
2927.18511	0.03531
2925.12516	0.03551
2923.06521	0.03570
2921.00527	0.03582
2918.94532	0.03585
2916.88537	0.03574
2914.82543	0.03553
2912.76548	0.03528
2910.70553	0.03499
2908.64558	0.03470
2906.58564	0.03452
2904.52569	0.03439
2902.46574	0.03427
2900.40579	0.03415
2898.34585	0.03404
2896.28590	0.03399
2894.22595	0.03397
2892.16601	0.03385
2890.10606	0.03368
2888.04611	0.03357
2885.98616	0.03354
2883.92622	0.03351
2881.86627	0.03345
2879.80632	0.03338
2877.74637	0.03328
2875.68643	0.03322
2873.62648	0.03319
2871.56653	0.03320
2869.50658	0.03326
2867.44664	0.03331
2865.38669	0.03329
2863.32674	0.03330
2861.26680	0.03336
2859.20685	0.03346
2857.14690	0.03360
2855.08695	0.03375
2853.02701	0.03391
2850.96706	0.03405
2848.90711	0.03404
2846.84716	0.03379
2844.78722	0.03346
2842.72727	0.03324
2840.66732	0.03310
2838.60738	0.03295
2836.54743	0.03274
2834.48748	0.03254
2832.42753	0.03240
2830.36759	0.03228
2828.30764	0.03220
2826.24769	0.03218
2824.18774	0.03213
2822.12780	0.03206
2820.06785	0.03200
2818.00790	0.03196
2815.94796	0.03192
2813.88801	0.03183
2811.82806	0.03176
2809.76811	0.03172
2807.70817	0.03168
2805.64822	0.03164
2803.58827	0.03162
2801.52832	0.03160
2799.46838	0.03158
2797.40843	0.03157
2795.34848	0.03157
2793.28853	0.03152
2791.22859	0.03145
2789.16864	0.03138
2787.10869	0.03130
2785.04875	0.03124
2782.98880	0.03124
2780.92885	0.03126
2778.86890	0.03125
2776.80896	0.03121
2774.74901	0.03121
2772.68906	0.03125
2770.62911	0.03122
2768.56917	0.03110
2766.50922	0.03100
2764.44927	0.03098
2762.38933	0.03096
2760.32938	0.03093
2758.26943	0.03095
2756.20948	0.03098
2754.14954	0.03096
2752.08959	0.03092
2750.02964	0.03087
2747.96969	0.03080
2745.90975	0.03077
2743.84980	0.03077
2741.78985	0.03075
2739.72991	0.03072
2737.66996	0.03068
2735.61001	0.03065
2733.55006	0.03062
2731.49012	0.03059
2729.43017	0.03057
2727.37022	0.03057
2725.31027	0.03059
2723.25033	0.03062
2721.19038	0.03062
2719.13043	0.03058
2717.07048	0.03054
2715.01054	0.03051
2712.95059	0.03047
2710.89064	0.03041
2708.83070	0.03034
2706.77075	0.03029
2704.71080	0.03032
2702.65085	0.03037
2700.59091	0.03032
2698.53096	0.03018
2696.47101	0.03008
2694.41106	0.03007
2692.35112	0.03006
2690.29117	0.03005
2688.23122	0.03008
2686.17128	0.03010
2684.11133	0.03010
2682.05138	0.03007
2679.99143	0.03007
2677.93149	0.03008
2675.87154	0.03005
2673.81159	0.03000
2671.75164	0.02998
2669.69170	0.03003
2667.63175	0.03013
2665.57180	0.03027
2663.51186	0.03039
2661.45191	0.03050
2659.39196	0.03062
2657.33201	0.03073
2655.27207	0.03072
2653.21212	0.03062
2651.15217	0.03055
2649.09222	0.03052
2647.03228	0.03050
2644.97233	0.03046
2642.91238	0.03037
2640.85243	0.03020
2638.79249	0.03002
2636.73254	0.02998
2634.67259	0.03002
2632.61265	0.02995
2630.55270	0.02980
2628.49275	0.02973
2626.43280	0.02968
2624.37286	0.02956
2622.31291	0.02943
2620.25296	0.02933
2618.19301	0.02924
2616.13307	0.02918
2614.07312	0.02914
2612.01317	0.02910
2609.95323	0.02902
2607.89328	0.02889
2605.83333	0.02881
2603.77338	0.02882
2601.71344	0.02881
2599.65349	0.02870
2597.59354	0.02858
2595.53359	0.02851
2593.47365	0.02844
2591.41370	0.02841
2589.35375	0.02841
2587.29381	0.02839
2585.23386	0.02835
2583.17391	0.02831
2581.11396	0.02825
2579.05402	0.02805
2576.99407	0.02786
2574.93412	0.02782
2572.87417	0.02784
2570.81423	0.02784
2568.75428	0.02780
2566.69433	0.02773
2564.63438	0.02775
2562.57444	0.02779
2560.51449	0.02775
2558.45454	0.02767
2556.39460	0.02758
2554.33465	0.02742
2552.27470	0.02729
2550.21475	0.02725
2548.15481	0.02723
2546.09486	0.02723
2544.03491	0.02730
2541.97496	0.02728
2539.91502	0.02714
2537.85507	0.02708
2535.79512	0.02714
2533.73518	0.02713
2531.67523	0.02704
2529.61528	0.02701
2527.55533	0.02704
2525.49539	0.02706
2523.43544	0.02702
2521.37549	0.02693
2519.31554	0.02682
2517.25560	0.02682
2515.19565	0.02690
2513.13570	0.02687
2511.07576	0.02676
2509.01581	0.02670
2506.95586	0.02671
2504.89591	0.02672
2502.83597	0.02674
2500.77602	0.02676
2498.71607	0.02680
2496.65612	0.02681
2494.59618	0.02677
2492.53623	0.02669
2490.47628	0.02660
2488.41633	0.02656
2486.35639	0.02657
2484.29644	0.02654
2482.23649	0.02645
2480.17655	0.02639
2478.11660	0.02635
2476.05665	0.02631
2473.99670	0.02635
2471.93676	0.02643
2469.87681	0.02644
2467.81686	0.02644
2465.75691	0.02648
2463.69697	0.02648
2461.63702	0.02646
2459.57707	0.02655
2457.51713	0.02667
2455.45718	0.02666
2453.39723	0.02656
2451.33728	0.02642
2449.27734	0.02629
2447.21739	0.02629
2445.15744	0.02634
2443.09749	0.02628
2441.03755	0.02609
2438.97760	0.02602
2436.91765	0.02609
2434.85771	0.02607
2432.79776	0.02595
2430.73781	0.02589
2428.67786	0.02583
2426.61792	0.02574
2424.55797	0.02567
2422.49802	0.02568
2420.43807	0.02567
2418.37813	0.02562
2416.31818	0.02558
2414.25823	0.02559
2412.19828	0.02556
2410.13834	0.02543
2408.07839	0.02523
2406.01844	0.02507
2403.95850	0.02504
2401.89855	0.02512
2399.83860	0.02522
2397.77865	0.02522
2395.71871	0.02511
2393.65876	0.02502
2391.59881	0.02497
2389.53886	0.02489
2387.47892	0.02484
2385.41897	0.02490
2383.35902	0.02504
2381.29908	0.02510
2379.23913	0.02510
2377.17918	0.02509
2375.11923	0.02502
2373.05929	0.02488
2370.99934	0.02475
2368.93939	0.02460
2366.87944	0.02443
2364.81950	0.02441
2362.75955	0.02453
2360.69960	0.02465
2358.63966	0.02473
2356.57971	0.02489
2354.51976	0.02517
2352.45981	0.02548
2350.39987	0.02572
2348.33992	0.02578
2346.27997	0.02566
2344.22002	0.02546
2342.16008	0.02528
2340.10013	0.02517
2338.04018	0.02515
2335.98023	0.02513
2333.92029	0.02515
2331.86034	0.02535
2329.80039	0.02593
2327.74045	0.02710
2325.68050	0.02814
2323.62055	0.02809
2321.56060	0.02742
2319.50066	0.02698
2317.44071	0.02678
2315.38076	0.02667
2313.32081	0.02664
2311.26087	0.02664
2309.20092	0.02652
2307.14097	0.02631
2305.08103	0.02618
2303.02108	0.02612
2300.96113	0.02612
2298.90118	0.02618
2296.84124	0.02629
2294.78129	0.02648
2292.72134	0.02675
2290.66139	0.02696
2288.60145	0.02704
2286.54150	0.02692
2284.48155	0.02658
2282.42161	0.02623
2280.36166	0.02597
2278.30171	0.02574
2276.24176	0.02550
2274.18182	0.02533
2272.12187	0.02514
2270.06192	0.02489
2268.00197	0.02474
2265.94203	0.02475
2263.88208	0.02486
2261.82213	0.02498
2259.76218	0.02496
2257.70224	0.02469
2255.64229	0.02437
2253.58234	0.02425
2251.52240	0.02426
2249.46245	0.02429
2247.40250	0.02434
2245.34255	0.02436
2243.28261	0.02426
2241.22266	0.02413
2239.16271	0.02408
2237.10276	0.02403
2235.04282	0.02403
2232.98287	0.02415
2230.92292	0.02425
2228.86298	0.02409
2226.80303	0.02377
2224.74308	0.02363
2222.68313	0.02362
2220.62319	0.02358
2218.56324	0.02349
2216.50329	0.02336
2214.44334	0.02326
2212.38340	0.02334
2210.32345	0.02352
2208.26350	0.02352
2206.20356	0.02337
2204.14361	0.02316
2202.08366	0.02297
2200.02371	0.02304
2197.96377	0.02335
2195.90382	0.02351
2193.84387	0.02339
2191.78392	0.02345
2189.72398	0.02377
2187.66403	0.02390
2185.60408	0.02344
2183.54413	0.02258
2181.48419	0.02207
2179.42424	0.02208
2177.36429	0.02186
2175.30435	0.02150
2173.24440	0.02184
2171.18445	0.02279
2169.12450	0.02384
2167.06456	0.02454
2165.00461	0.02453
2162.94466	0.02321
2160.88471	0.01966
2158.82477	0.01570
2156.76482	0.01467
2154.70487	0.01581
2152.64493	0.01701
2150.58498	0.01781
2148.52503	0.01835
2146.46508	0.01863
2144.40514	0.01876
2142.34519	0.01895
2140.28524	0.01912
2138.22529	0.01896
2136.16535	0.01842
2134.10540	0.01823
2132.04545	0.01875
2129.98551	0.01934
2127.92556	0.01978
2125.86561	0.02031
2123.80566	0.02081
2121.74572	0.02110
2119.68577	0.02134
2117.62582	0.02181
2115.56587	0.02229
2113.50593	0.02243
2111.44598	0.02236
2109.38603	0.02239
2107.32608	0.02240
2105.26614	0.02230
2103.20619	0.02232
2101.14624	0.02247
2099.08630	0.02235
2097.02635	0.02184
2094.96640	0.02138
2092.90645	0.02134
2090.84651	0.02153
2088.78656	0.02180
2086.72661	0.02218
2084.66666	0.02253
2082.60672	0.02270
2080.54677	0.02278
2078.48682	0.02285
2076.42688	0.02280
2074.36693	0.02262
2072.30698	0.02244
2070.24703	0.02225
2068.18709	0.02192
2066.12714	0.02165
2064.06719	0.02172
2062.00724	0.02197
2059.94730	0.02222
2057.88735	0.02226
2055.82740	0.02204
2053.76746	0.02242
2051.70751	0.02316
2049.64756	0.02292
2047.58761	0.02220
2045.52767	0.02174
2043.46772	0.02129
2041.40777	0.02131
2039.34782	0.02177
2037.28788	0.02179
2035.22793	0.02114
2033.16798	0.02032
2031.10803	0.01973
2029.04809	0.01942
2026.98814	0.01941
2024.92819	0.01967
2022.86825	0.01980
2020.80830	0.01963
2018.74835	0.01955
2016.68840	0.01952
2014.62846	0.01957
2012.56851	0.01984
2010.50856	0.01996
2008.44861	0.01955
2006.38867	0.01912
2004.32872	0.01931
2002.26877	0.01979
2000.20883	0.02012
1998.14888	0.02035
1996.08893	0.02057
1994.02898	0.02080
1991.96904	0.02096
1989.90909	0.02107
1987.84914	0.02132
1985.78919	0.02161
1983.72925	0.02228
1981.66930	0.02304
1979.60935	0.02225
1977.54941	0.02021
1975.48946	0.01888
1973.42951	0.01858
1971.36956	0.01889
1969.30962	0.01933
1967.24967	0.01940
1965.18972	0.01931
1963.12977	0.01919
1961.06983	0.01877
1959.00988	0.01832
1956.94993	0.01849
1954.88998	0.01909
1952.83004	0.01948
1950.77009	0.01963
1948.71014	0.01972
1946.65020	0.01978
1944.59025	0.01981
1942.53030	0.01977
1940.47035	0.01962
1938.41041	0.01952
1936.35046	0.01958
1934.29051	0.01973
1932.23056	0.01990
1930.17062	0.02004
1928.11067	0.02012
1926.05072	0.02014
1923.99078	0.02035
1921.93083	0.02075
1919.87088	0.02094
1917.81093	0.02091
1915.75099	0.02086
1913.69104	0.02087
1911.63109	0.02092
1909.57114	0.02096
1907.51120	0.02107
1905.45125	0.02126
1903.39130	0.02129
1901.33136	0.02122
1899.27141	0.02129
1897.21146	0.02150
1895.15151	0.02163
1893.09157	0.02174
1891.03162	0.02198
1888.97167	0.02209
1886.91172	0.02193
1884.85178	0.02180
1882.79183	0.02178
1880.73188	0.02180
1878.67193	0.02184
1876.61199	0.02193
1874.55204	0.02204
1872.49209	0.02219
1870.43215	0.02242
1868.37220	0.02246
1866.31225	0.02217
1864.25230	0.02193
1862.19236	0.02187
1860.13241	0.02187
1858.07246	0.02180
1856.01251	0.02162
1853.95257	0.02146
1851.89262	0.02145
1849.83267	0.02153
1847.77273	0.02163
1845.71278	0.02174
1843.65283	0.02169
1841.59288	0.02146
1839.53294	0.02133
1837.47299	0.02133
1835.41304	0.02128
1833.35309	0.02128
1831.29315	0.02151
1829.23320	0.02170
1827.17325	0.02163
1825.11331	0.02157
1823.05336	0.02150
1820.99341	0.02129
1818.93346	0.02101
1816.87352	0.02090
1814.81357	0.02106
1812.75362	0.02134
1810.69367	0.02154
1808.63373	0.02160
1806.57378	0.02165
1804.51383	0.02186
1802.45388	0.02216
1800.39394	0.02230
1798.33399	0.02225
1796.27404	0.02232
1794.21410	0.02254
1792.15415	0.02262
1790.09420	0.02238
1788.03425	0.02220
1785.97431	0.02221
1783.91436	0.02224
1781.85441	0.02231
1779.79446	0.02234
1777.73452	0.02232
1775.67457	0.02252
1773.61462	0.02290
1771.55468	0.02309
1769.49473	0.02299
1767.43478	0.02275
1765.37483	0.02254
1763.31489	0.02261
1761.25494	0.02280
1759.19499	0.02292
1757.13504	0.02302
1755.07510	0.02306
1753.01515	0.02328
1750.95520	0.02377
1748.89526	0.02412
1746.83531	0.02416
1744.77536	0.02414
1742.71541	0.02415
1740.65547	0.02421
1738.59552	0.02429
1736.53557	0.02457
1734.47562	0.02512
1732.41568	0.02531
1730.35573	0.02511
1728.29578	0.02494
1726.23583	0.02492
1724.17589	0.02511
1722.11594	0.02540
1720.05599	0.02589
1717.99605	0.02662
1715.93610	0.02691
1713.87615	0.02665
1711.81620	0.02648
1709.75626	0.02660
1707.69631	0.02693
1705.63636	0.02732
1703.57641	0.02765
1701.51647	0.02813
1699.45652	0.02872
1697.39657	0.02888
1695.33663	0.02854
1693.27668	0.02831
1691.21673	0.02860
1689.15678	0.02917
1687.09684	0.02983
1685.03689	0.03060
1682.97694	0.03087
1680.91699	0.03067
1678.85705	0.03068
1676.79710	0.03096
1674.73715	0.03136
1672.67721	0.03174
1670.61726	0.03214
1668.55731	0.03219
1666.49736	0.03210
1664.43742	0.03234
1662.37747	0.03268
1660.31752	0.03282
1658.25757	0.03313
1656.19763	0.03388
1654.13768	0.03472
1652.07773	0.03466
1650.01778	0.03469
1647.95784	0.03518
1645.89789	0.03518
1643.83794	0.03479
1641.77800	0.03475
1639.71805	0.03513
1637.65810	0.03580
1635.59815	0.03603
1633.53821	0.03556
1631.47826	0.03544
1629.41831	0.03570
1627.35836	0.03597
1625.29842	0.03619
1623.23847	0.03623
1621.17852	0.03609
1619.11858	0.03618
1617.05863	0.03629
1614.99868	0.03600
1612.93873	0.03580
1610.87879	0.03583
1608.81884	0.03585
1606.75889	0.03578
1604.69894	0.03570
1602.63900	0.03564
1600.57905	0.03556
1598.51910	0.03548
1596.45916	0.03540
1594.39921	0.03531
1592.33926	0.03519
1590.27931	0.03503
1588.21937	0.03486
1586.15942	0.03474
1584.09947	0.03467
1582.03952	0.03462
1579.97958	0.03475
1577.91963	0.03502
1575.85968	0.03483
1573.79973	0.03437
1571.73979	0.03436
1569.67984	0.03437
1567.61989	0.03406
1565.55995	0.03381
1563.50000	0.03385
1561.44005	0.03435
1559.38010	0.03499
1557.32016	0.03436
1555.26021	0.03359
1553.20026	0.03323
1551.14031	0.03306
1549.08037	0.03294
1547.02042	0.03305
1544.96047	0.03358
1542.90053	0.03423
1540.84058	0.03427
1538.78063	0.03318
1536.72068	0.03255
1534.66074	0.03257
1532.60079	0.03240
1530.54084	0.03211
1528.48089	0.03220
1526.42095	0.03241
1524.36100	0.03254
1522.30105	0.03262
1520.24111	0.03236
1518.18116	0.03205
1516.12121	0.03167
1514.06126	0.03125
1512.00132	0.03126
1509.94137	0.03183
1507.88142	0.03234
1505.82147	0.03123
1503.76153	0.03007
1501.70158	0.02979
1499.64163	0.02982
1497.58168	0.02971
1495.52174	0.02926
1493.46179	0.02904
1491.40184	0.02930
1489.34190	0.02945
1487.28195	0.02890
1485.22200	0.02830
1483.16205	0.02805
1481.10211	0.02803
1479.04216	0.02814
1476.98221	0.02852
1474.92226	0.02910
1472.86232	0.02936
1470.80237	0.02908
1468.74242	0.02896
1466.68248	0.02924
1464.62253	0.02943
1462.56258	0.02939
1460.50263	0.02971
1458.44269	0.03043
1456.38274	0.03046
1454.32279	0.02979
1452.26284	0.02945
1450.20290	0.02946
1448.14295	0.02952
1446.08300	0.02935
1444.02306	0.02913
1441.96311	0.02909
1439.90316	0.02929
1437.84321	0.02965
1435.78327	0.02979
1433.72332	0.02973
1431.66337	0.02979
1429.60342	0.02985
1427.54348	0.02985
1425.48353	0.02999
1423.42358	0.03027
1421.36363	0.03062
1419.30369	0.03093
1417.24374	0.03074
1415.18379	0.03031
1413.12385	0.03016
1411.06390	0.03017
1409.00395	0.03014
1406.94400	0.03017
1404.88406	0.03024
1402.82411	0.03025
1400.76416	0.03042
1398.70421	0.03069
1396.64427	0.03082
1394.58432	0.03062
1392.52437	0.03027
1390.46443	0.03019
1388.40448	0.03038
1386.34453	0.03039
1384.28458	0.03020
1382.22464	0.03015
1380.16469	0.03028
1378.10474	0.03046
1376.04479	0.03065
1373.98485	0.03061
1371.92490	0.03035
1369.86495	0.03020
1367.80501	0.03014
1365.74506	0.03015
1363.68511	0.03031
1361.62516	0.03022
1359.56522	0.02984
1357.50527	0.02957
1355.44532	0.02944
1353.38537	0.02936
1351.32543	0.02930
1349.26548	0.02923
1347.20553	0.02912
1345.14558	0.02904
1343.08564	0.02913
1341.02569	0.02941
1338.96574	0.02952
1336.90580	0.02928
1334.84585	0.02897
1332.78590	0.02877
1330.72595	0.02865
1328.66601	0.02862
1326.60606	0.02865
1324.54611	0.02869
1322.48616	0.02875
1320.42622	0.02884
1318.36627	0.02889
1316.30632	0.02887
1314.24638	0.02885
1312.18643	0.02879
1310.12648	0.02871
1308.06653	0.02867
1306.00659	0.02869
1303.94664	0.02872
1301.88669	0.02877
1299.82674	0.02882
1297.76680	0.02892
1295.70685	0.02901
1293.64690	0.02912
1291.58696	0.02930
1289.52701	0.02949
1287.46706	0.02965
1285.40711	0.02982
1283.34717	0.03002
1281.28722	0.03021
1279.22727	0.03036
1277.16732	0.03051
1275.10738	0.03070
1273.04743	0.03094
1270.98748	0.03115
1268.92753	0.03129
1266.86759	0.03141
1264.80764	0.03155
1262.74769	0.03172
1260.68775	0.03192
1258.62780	0.03213
1256.56785	0.03239
1254.50790	0.03270
1252.44796	0.03302
1250.38801	0.03336
1248.32806	0.03375
1246.26811	0.03419
1244.20817	0.03463
1242.14822	0.03507
1240.08827	0.03551
1238.02833	0.03598
1235.96838	0.03644
1233.90843	0.03691
1231.84848	0.03744
1229.78854	0.03805
1227.72859	0.03872
1225.66864	0.03951
1223.60869	0.04052
1221.54875	0.04178
1219.48880	0.04317
1217.42885	0.04459
1215.36891	0.04604
1213.30896	0.04758
1211.24901	0.04918
1209.18906	0.05074
1207.12912	0.05227
1205.06917	0.05376
1203.00922	0.05520
1200.94927	0.05655
1198.88933	0.05784
1196.82938	0.05906
1194.76943	0.06027
1192.70949	0.06152
1190.64954	0.06282
1188.58959	0.06411
1186.52964	0.06540
1184.46970	0.06674
1182.40975	0.06814
1180.34980	0.06965
1178.28985	0.07135
1176.22991	0.07325
1174.16996	0.07540
1172.11001	0.07778
1170.05006	0.08037
1167.99012	0.08314
1165.93017	0.08591
1163.87022	0.08811
1161.81028	0.08900
1159.75033	0.08836
1157.69038	0.08705
1155.63043	0.08627
1153.57049	0.08652
1151.51054	0.08758
1149.45059	0.08907
1147.39064	0.09076
1145.33070	0.09258
1143.27075	0.09451
1141.21080	0.09653
1139.15086	0.09866
1137.09091	0.10089
1135.03096	0.10324
1132.97101	0.10569
1130.91107	0.10823
1128.85112	0.11081
1126.79117	0.11342
1124.73122	0.11611
1122.67128	0.11888
1120.61133	0.12176
1118.55138	0.12471
1116.49144	0.12763
1114.43149	0.13055
1112.37154	0.13358
1110.31159	0.13665
1108.25165	0.13976
1106.19170	0.14299
1104.13175	0.14638
1102.07180	0.14983
1100.01186	0.15331
1097.95191	0.15684
1095.89196	0.16032
1093.83201	0.16368
1091.77207	0.16689
1089.71212	0.16989
1087.65217	0.17266
1085.59223	0.17519
1083.53228	0.17740
1081.47233	0.17919
1079.41238	0.18050
1077.35244	0.18133
1075.29249	0.18173
1073.23254	0.18181
1071.17259	0.18179
1069.11265	0.18193
1067.05270	0.18236
1064.99275	0.18309
1062.93281	0.18390
1060.87286	0.18444
1058.81291	0.18455
1056.75296	0.18438
1054.69302	0.18408
1052.63307	0.18376
1050.57312	0.18338
1048.51317	0.18288
1046.45323	0.18235
1044.39328	0.18206
1042.33333	0.18204
1040.27339	0.18208
1038.21344	0.18209
1036.15349	0.18202
1034.09354	0.18180
1032.03360	0.18142
1029.97365	0.18091
1027.91370	0.18027
1025.85375	0.17952
1023.79381	0.17870
1021.73386	0.17787
1019.67391	0.17711
1017.61396	0.17643
1015.55402	0.17584
1013.49407	0.17531
1011.43412	0.17480
1009.37418	0.17428
1007.31423	0.17367
1005.25428	0.17279
1003.19433	0.17169
1001.13439	0.17049
999.07444	0.16924
997.01449	0.16789
994.95454	0.16644
992.89460	0.16497
990.83465	0.16353
988.77470	0.16209
986.71476	0.16056
984.65481	0.15892
982.59486	0.15728
980.53491	0.15568
978.47497	0.15407
976.41502	0.15237
974.35507	0.15056
972.29512	0.14868
970.23518	0.14680
968.17523	0.14497
966.11528	0.14320
964.05534	0.14137
961.99539	0.13941
959.93544	0.13749
957.87549	0.13571
955.81555	0.13401
953.75560	0.13235
951.69565	0.13074
949.63570	0.12921
947.57576	0.12775
945.51581	0.12638
943.45586	0.12502
941.39591	0.12362
939.33597	0.12229
937.27602	0.12101
935.21607	0.11965
933.15613	0.11827
931.09618	0.11695
929.03623	0.11566
926.97628	0.11437
924.91634	0.11308
922.85639	0.11184
920.79644	0.11074
918.73649	0.10974
916.67655	0.10878
914.61660	0.10782
912.55665	0.10669
910.49671	0.10528
908.43676	0.10371
906.37681	0.10211
904.31686	0.10044
902.25692	0.09869
900.19697	0.09693
898.13702	0.09521
896.07707	0.09351
894.01713	0.09191
891.95718	0.09037
889.89723	0.08885
887.83729	0.08735
885.77734	0.08592
883.71739	0.08455
881.65744	0.08318
879.59750	0.08182
877.53755	0.08050
875.47760	0.07918
873.41765	0.07776
871.35771	0.07627
869.29776	0.07476
867.23781	0.07333
865.17786	0.07202
863.11792	0.07078
861.05797	0.06947
858.99802	0.06812
856.93808	0.06685
854.87813	0.06562
852.81818	0.06440
850.75823	0.06331
848.69829	0.06237
846.63834	0.06148
844.57839	0.06063
842.51844	0.05991
840.45850	0.05936
838.39855	0.05893
836.33860	0.05859
834.27866	0.05828
832.21871	0.05802
830.15876	0.05787
828.09881	0.05782
826.03887	0.05791
823.97892	0.05823
821.91897	0.05879
819.85902	0.05961
817.79908	0.06092
815.73913	0.06288
813.67918	0.06562
811.61924	0.06965
809.55929	0.07563
807.49934	0.08375
805.43939	0.09358
803.37945	0.10427
801.31950	0.11464
799.25955	0.12311
797.19960	0.12823
795.13966	0.12966
793.07971	0.12865
791.01976	0.12706
788.95981	0.12632
786.89987	0.12736
784.83992	0.13065
782.77997	0.13575
780.72003	0.14117
778.66008	0.14494
776.60013	0.14572
774.54018	0.14345
772.48024	0.13926
770.42029	0.13450
768.36034	0.12998
766.30039	0.12587
764.24045	0.12211
762.18050	0.11864
760.12055	0.11547
758.06061	0.11256
756.00066	0.10978
753.94071	0.10717
751.88076	0.10486
749.82082	0.10279
747.76087	0.10085
745.70092	0.09909
743.64097	0.09752
741.58103	0.09598
739.52108	0.09438
737.46113	0.09291
735.40119	0.09165
733.34124	0.09044
731.28129	0.08931
729.22134	0.08832
727.16140	0.08747
725.10145	0.08667
723.04150	0.08582
720.98155	0.08484
718.92161	0.08378
716.86166	0.08285
714.80171	0.08206
712.74176	0.08146
710.68182	0.08118
708.62187	0.08131
706.56192	0.08184
704.50198	0.08307
702.44203	0.08569
700.38208	0.09032
698.32213	0.09684
696.26219	0.10334
694.20224	0.10654
692.14229	0.10531
690.08234	0.10151
688.02240	0.09714
685.96245	0.09312
683.90250	0.08979
681.84256	0.08711
679.78261	0.08486
677.72266	0.08293
675.66271	0.08133
673.60277	0.07997
671.54282	0.07894
669.48287	0.07787
667.42292	0.07609
665.36298	0.07479
663.30303	0.07418
661.24308	0.07359
659.18314	0.07292
657.12319	0.07225
655.06324	0.07182
653.00329	0.07179
650.94335	0.07190
648.88340	0.07177
646.82345	0.07145
644.76350	0.07105
642.70356	0.07049
640.64361	0.06978
638.58366	0.06909
636.52371	0.06849
634.46377	0.06790
632.40382	0.06732
630.34387	0.06683
628.28393	0.06647
626.22398	0.06616
624.16403	0.06586
622.10408	0.06567
620.04414	0.06573
617.98419	0.06604
615.92424	0.06645
613.86429	0.06682
611.80435	0.06712
609.74440	0.06752
607.68445	0.06791
605.62451	0.06815
603.56456	0.06846
601.50461	0.06886
599.44466	0.06915
597.38472	0.06932
595.32477	0.06965
593.26482	0.07029
591.20487	0.07084
589.14493	0.07098
587.08498	0.07115
585.02503	0.07146
582.96509	0.07163
580.90514	0.07171
578.84519	0.07182
576.78524	0.07188
574.72530	0.07185
572.66535	0.07191
570.60540	0.07222
568.54545	0.07276
566.48551	0.07337
564.42556	0.07382
562.36561	0.07420
560.30566	0.07486
558.24572	0.07568
556.18577	0.07646
554.12582	0.07745
552.06588	0.07890
550.00593	0.08093
547.94598	0.08367
545.88603	0.08713
543.82609	0.09119
541.76614	0.09561
539.70619	0.10023
537.64624	0.10494
535.58630	0.10961
533.52635	0.11412
531.46640	0.11832
529.40646	0.12220
527.34651	0.12567
525.28656	0.12866
523.22661	0.13129
521.16667	0.13351
519.10672	0.13501
517.04677	0.13543
514.98682	0.13467
512.92688	0.13327
510.86693	0.13178
508.80698	0.13033
506.74704	0.12942
504.68709	0.13013
502.62714	0.13276
500.56719	0.13658
498.50725	0.14090
496.44730	0.14539
494.38735	0.15001
492.32740	0.15513
490.26746	0.16043
488.20751	0.16545
486.14756	0.17066
484.08761	0.17624
482.02767	0.18212
479.96772	0.18850
477.90777	0.19548
475.84783	0.20303
473.78788	0.21097
471.72793	0.21885
469.66798	0.22613
467.60804	0.23291
465.54809	0.23918
463.48814	0.24471
461.42819	0.24969
459.36825	0.25412
457.30830	0.25769
455.24835	0.25923
453.18841	0.25863
451.12846	0.25701
449.06851	0.25531
447.00856	0.25301
444.94862	0.25013
442.88867	0.24765
440.82872	0.24500
438.76877	0.24239
436.70883	0.24093
434.64888	0.23999
432.58893	0.23833
430.52899	0.23585
428.46904	0.23299
426.40909	0.23041
424.34914	0.22841
422.28920	0.22657
420.22925	0.22343
418.16930	0.21670
416.10935	0.20880
414.04941	0.20085
411.98946	0.19204
409.92951	0.18282
407.86956	0.17365
405.80962	0.16752
403.74967	0.16859
401.68972	0.17879
399.62978	0.19812
