3996.29776	0.04583
3994.23781	0.04581
3992.17786	0.04581
3990.11791	0.04591
3988.05797	0.04594
3985.99802	0.04577
3983.93807	0.04558
3981.87813	0.04558
3979.81818	0.04568
3977.75823	0.04574
3975.69828	0.04576
3973.63834	0.04575
3971.57839	0.04565
3969.51844	0.04560
3967.45849	0.04567
3965.39855	0.04572
3963.33860	0.04576
3961.27865	0.04580
3959.21870	0.04571
3957.15876	0.04560
3955.09881	0.04554
3953.03886	0.04543
3950.97892	0.04545
3948.91897	0.04578
3946.85902	0.04595
3944.79907	0.04584
3942.73913	0.04597
3940.67918	0.04607
3938.61923	0.04581
3936.55928	0.04549
3934.49934	0.04542
3932.43939	0.04579
3930.37944	0.04613
3928.31950	0.04582
3926.25955	0.04544
3924.19960	0.04551
3922.13965	0.04550
3920.07971	0.04542
3918.01976	0.04575
3915.95981	0.04607
3913.89986	0.04582
3911.83992	0.04540
3909.77997	0.04512
3907.72002	0.04483
3905.66008	0.04490
3903.60013	0.04566
3901.54018	0.04653
3899.48023	0.04700
3897.42029	0.04674
3895.36034	0.04585
3893.30039	0.04531
3891.24044	0.04569
3889.18050	0.04570
3887.12055	0.04535
3885.06060	0.04577
3883.00065	0.04598
3880.94071	0.04596
3878.88076	0.04604
3876.82081	0.04542
3874.76087	0.04499
3872.70092	0.04519
3870.64097	0.04584
3868.58102	0.04650
3866.52108	0.04624
3864.46113	0.04616
3862.40118	0.04640
3860.34123	0.04587
3858.28129	0.04483
3856.22134	0.04400
3854.16139	0.04512
3852.10145	0.04759
3850.04150	0.04713
3847.98155	0.04557
3845.92160	0.04463
3843.86166	0.04453
3841.80171	0.04479
3839.74176	0.04524
3837.68181	0.04610
3835.62187	0.04638
3833.56192	0.04596
3831.50197	0.04565
3829.44203	0.04529
3827.38208	0.04498
3825.32213	0.04475
3823.26218	0.04447
3821.20224	0.04529
3819.14229	0.04601
3817.08234	0.04566
3815.02239	0.04577
3812.96245	0.04538
3810.90250	0.04428
3808.84255	0.04376
3806.78260	0.04443
3804.72266	0.04479
3802.66271	0.04483
3800.60276	0.04575
3798.54282	0.04589
3796.48287	0.04544
3794.42292	0.04508
3792.36297	0.04447
3790.30303	0.04404
3788.24308	0.04399
3786.18313	0.04421
3784.12318	0.04438
3782.06324	0.04419
3780.00329	0.04427
3777.94334	0.04463
3775.88340	0.04436
3773.82345	0.04376
3771.76350	0.04367
3769.70355	0.04432
3767.64361	0.04480
3765.58366	0.04482
3763.52371	0.04453
3761.46376	0.04400
3759.40382	0.04411
3757.34387	0.04452
3755.28392	0.04417
3753.22398	0.04376
3751.16403	0.04475
3749.10408	0.04607
3747.04413	0.04570
3744.98419	0.04568
3742.92424	0.04644
3740.86429	0.04573
3738.80434	0.04453
3736.74440	0.04461
3734.68445	0.04593
3732.62450	0.04634
3730.56455	0.04543
3728.50461	0.04441
3726.44466	0.04414
3724.38471	0.04445
3722.32477	0.04465
3720.26482	0.04462
3718.20487	0.04429
3716.14492	0.04369
3714.08498	0.04333
3712.02503	0.04411
3709.96508	0.04527
3707.90513	0.04514
3705.84519	0.04442
3703.78524	0.04408
3701.72529	0.04448
3699.66535	0.04479
3697.60540	0.04456
3695.54545	0.04423
3693.48550	0.04386
3691.42556	0.04389
3689.36561	0.04508
3687.30566	0.04601
3685.24571	0.04535
3683.18577	0.04433
3681.12582	0.04380
3679.06587	0.04357
3677.00593	0.04394
3674.94598	0.04540
3672.88603	0.04557
3670.82608	0.04531
3668.76614	0.04595
3666.70619	0.04554
3664.64624	0.04459
3662.58629	0.04421
3660.52635	0.04403
3658.46640	0.04388
3656.40645	0.04433
3654.34651	0.04454
3652.28656	0.04401
3650.22661	0.04477
3648.16666	0.04713
3646.10672	0.04744
3644.04677	0.04627
3641.98682	0.04534
3639.92687	0.04498
3637.86693	0.04492
3635.80698	0.04504
3633.74703	0.04516
3631.68708	0.04513
3629.62714	0.04611
3627.56719	0.04777
3625.50724	0.04733
3623.44730	0.04612
3621.38735	0.04568
3619.32740	0.04642
3617.26745	0.04721
3615.20751	0.04706
3613.14756	0.04677
3611.08761	0.04663
3609.02766	0.04682
3606.96772	0.04719
3604.90777	0.04687
3602.84782	0.04635
3600.78788	0.04635
3598.72793	0.04652
3596.66798	0.04664
3594.60803	0.04685
3592.54809	0.04672
3590.48814	0.04626
3588.42819	0.04663
3586.36824	0.04773
3584.30830	0.04769
3582.24835	0.04704
3580.18840	0.04676
3578.12846	0.04677
3576.06851	0.04689
3574.00856	0.04698
3571.94861	0.04680
3569.88867	0.04671
3567.82872	0.04770
3565.76877	0.04893
3563.70882	0.04864
3561.64888	0.04791
3559.58893	0.04770
3557.52898	0.04761
3555.46903	0.04747
3553.40909	0.04760
3551.34914	0.04785
3549.28919	0.04790
3547.22925	0.04812
3545.16930	0.04855
3543.10935	0.04859
3541.04940	0.04828
3538.98946	0.04811
3536.92951	0.04819
3534.86956	0.04826
3532.80961	0.04818
3530.74967	0.04813
3528.68972	0.04836
3526.62977	0.04872
3524.56983	0.04897
3522.50988	0.04911
3520.44993	0.04905
3518.38998	0.04889
3516.33004	0.04878
3514.27009	0.04869
3512.21014	0.04871
3510.15019	0.04893
3508.09025	0.04912
3506.03030	0.04915
3503.97035	0.04937
3501.91041	0.04966
3499.85046	0.04957
3497.79051	0.04934
3495.73056	0.04926
3493.67062	0.04927
3491.61067	0.04928
3489.55072	0.04933
3487.49077	0.04951
3485.43083	0.04962
3483.37088	0.04968
3481.31093	0.04985
3479.25098	0.04989
3477.19104	0.04978
3475.13109	0.04977
3473.07114	0.04989
3471.01120	0.05003
3468.95125	0.05013
3466.89130	0.05014
3464.83135	0.05014
3462.77141	0.05022
3460.71146	0.05030
3458.65151	0.05031
3456.59156	0.05037
3454.53162	0.05048
3452.47167	0.05049
3450.41172	0.05041
3448.35178	0.05050
3446.29183	0.05072
3444.23188	0.05074
3442.17193	0.05068
3440.11199	0.05075
3438.05204	0.05078
3435.99209	0.05062
3433.93214	0.05051
3431.87220	0.05056
3429.81225	0.05071
3427.75230	0.05085
3425.69236	0.05092
3423.63241	0.05095
3421.57246	0.05107
3419.51251	0.05128
3417.45257	0.05134
3415.39262	0.05120
3413.33267	0.05107
3411.27272	0.05109
3409.21278	0.05112
3407.15283	0.05115
3405.09288	0.05121
3403.03293	0.05127
3400.97299	0.05131
3398.91304	0.05137
3396.85309	0.05142
3394.79315	0.05143
3392.73320	0.05144
3390.67325	0.05151
3388.61330	0.05157
3386.55336	0.05164
3384.49341	0.05175
3382.43346	0.05176
3380.37351	0.05165
3378.31357	0.05154
3376.25362	0.05149
3374.19367	0.05153
3372.13373	0.05161
3370.07378	0.05164
3368.01383	0.05162
3365.95388	0.05163
3363.89394	0.05168
3361.83399	0.05172
3359.77404	0.05165
3357.71409	0.05158
3355.65415	0.05163
3353.59420	0.05171
3351.53425	0.05171
3349.47431	0.05169
3347.41436	0.05166
3345.35441	0.05161
3343.29446	0.05155
3341.23452	0.05153
3339.17457	0.05155
3337.11462	0.05160
3335.05467	0.05160
3332.99473	0.05155
3330.93478	0.05154
3328.87483	0.05155
3326.81488	0.05154
3324.75494	0.05154
3322.69499	0.05153
3320.63504	0.05149
3318.57510	0.05143
3316.51515	0.05139
3314.45520	0.05139
3312.39525	0.05141
3310.33531	0.05143
3308.27536	0.05143
3306.21541	0.05142
3304.15546	0.05140
3302.09552	0.05136
3300.03557	0.05134
3297.97562	0.05130
3295.91568	0.05122
3293.85573	0.05116
3291.79578	0.05120
3289.73583	0.05127
3287.67589	0.05129
3285.61594	0.05122
3283.55599	0.05111
3281.49604	0.05108
3279.43610	0.05110
3277.37615	0.05109
3275.31620	0.05108
3273.25626	0.05105
3271.19631	0.05101
3269.13636	0.05097
3267.07641	0.05093
3265.01647	0.05085
3262.95652	0.05074
3260.89657	0.05067
3258.83662	0.05063
3256.77668	0.05055
3254.71673	0.05047
3252.65678	0.05048
3250.59683	0.05053
3248.53689	0.05056
3246.47694	0.05048
3244.41699	0.05037
3242.35705	0.05032
3240.29710	0.05030
3238.23715	0.05030
3236.17720	0.05025
3234.11726	0.05015
3232.05731	0.05013
3229.99736	0.05023
3227.93741	0.05029
3225.87747	0.05024
3223.81752	0.05012
3221.75757	0.05007
3219.69763	0.05013
3217.63768	0.05016
3215.57773	0.05006
3213.51778	0.04996
3211.45784	0.04990
3209.39789	0.04985
3207.33794	0.04974
3205.27799	0.04966
3203.21805	0.04966
3201.15810	0.04965
3199.09815	0.04963
3197.03821	0.04961
3194.97826	0.04950
3192.91831	0.04934
3190.85836	0.04924
3188.79842	0.04919
3186.73847	0.04918
3184.67852	0.04921
3182.61857	0.04924
3180.55863	0.04928
3178.49868	0.04930
3176.43873	0.04920
3174.37878	0.04899
3172.31884	0.04888
3170.25889	0.04884
3168.19894	0.04882
3166.13900	0.04880
3164.07905	0.04876
3162.01910	0.04867
3159.95915	0.04859
3157.89921	0.04854
3155.83926	0.04846
3153.77931	0.04835
3151.71936	0.04830
3149.65942	0.04835
3147.59947	0.04832
3145.53952	0.04817
3143.47958	0.04812
3141.41963	0.04816
3139.35968	0.04815
3137.29973	0.04810
3135.23979	0.04808
3133.17984	0.04808
3131.11989	0.04807
3129.05994	0.04797
3127.00000	0.04788
3124.94005	0.04784
3122.88010	0.04782
3120.82016	0.04780
3118.76021	0.04777
3116.70026	0.04770
3114.64031	0.04756
3112.58037	0.04740
3110.52042	0.04735
3108.46047	0.04740
3106.40052	0.04739
3104.34058	0.04731
3102.28063	0.04732
3100.22068	0.04736
3098.16073	0.04734
3096.10079	0.04733
3094.04084	0.04729
3091.98089	0.04718
3089.92095	0.04709
3087.86100	0.04706
3085.80105	0.04709
3083.74110	0.04708
3081.68116	0.04700
3079.62121	0.04697
3077.56126	0.04696
3075.50131	0.04685
3073.44137	0.04672
3071.38142	0.04666
3069.32147	0.04661
3067.26153	0.04658
3065.20158	0.04653
3063.14163	0.04644
3061.08168	0.04638
3059.02174	0.04632
3056.96179	0.04627
3054.90184	0.04625
3052.84189	0.04623
3050.78195	0.04618
3048.72200	0.04610
3046.66205	0.04605
3044.60211	0.04607
3042.54216	0.04606
3040.48221	0.04592
3038.42226	0.04578
3036.36232	0.04575
3034.30237	0.04575
3032.24242	0.04576
3030.18247	0.04581
3028.12253	0.04581
3026.06258	0.04575
3024.00263	0.04569
3021.94268	0.04563
3019.88274	0.04556
3017.82279	0.04547
3015.76284	0.04538
3013.70290	0.04535
3011.64295	0.04539
3009.58300	0.04537
3007.52305	0.04527
3005.46311	0.04518
3003.40316	0.04517
3001.34321	0.04514
2999.28326	0.04509
2997.22332	0.04509
2995.16337	0.04509
2993.10342	0.04505
2991.04348	0.04498
2988.98353	0.04492
2986.92358	0.04491
2984.86363	0.04495
2982.80369	0.04498
2980.74374	0.04500
2978.68379	0.04498
2976.62384	0.04490
2974.56390	0.04489
2972.50395	0.04494
2970.44400	0.04499
2968.38406	0.04505
2966.32411	0.04509
2964.26416	0.04514
2962.20421	0.04520
2960.14427	0.04526
2958.08432	0.04532
2956.02437	0.04539
2953.96442	0.04544
2951.90448	0.04543
2949.84453	0.04543
2947.78458	0.04546
2945.72463	0.04549
2943.66469	0.04558
2941.60474	0.04570
2939.54479	0.04582
2937.48485	0.04595
2935.42490	0.04613
2933.36495	0.04631
2931.30500	0.04647
2929.24506	0.04659
2927.18511	0.04672
2925.12516	0.04692
2923.06521	0.04711
2921.00527	0.04721
2918.94532	0.04721
2916.88537	0.04709
2914.82543	0.04686
2912.76548	0.04661
2910.70553	0.04633
2908.64558	0.04601
2906.58564	0.04577
2904.52569	0.04565
2902.46574	0.04557
2900.40579	0.04540
2898.34585	0.04522
2896.28590	0.04515
2894.22595	0.04509
2892.16601	0.04497
2890.10606	0.04483
2888.04611	0.04474
2885.98616	0.04473
2883.92622	0.04467
2881.86627	0.04457
2879.80632	0.04447
2877.74637	0.04441
2875.68643	0.04441
2873.62648	0.04442
2871.56653	0.04439
2869.50658	0.04438
2867.44664	0.04437
2865.38669	0.04437
2863.32674	0.04443
2861.26680	0.04451
2859.20685	0.04456
2857.14690	0.04465
2855.08695	0.04481
2853.02701	0.04497
2850.96706	0.04508
2848.90711	0.04501
2846.84716	0.04476
2844.78722	0.04450
2842.72727	0.04425
2840.66732	0.04400
2838.60738	0.04376
2836.54743	0.04356
2834.48748	0.04342
2832.42753	0.04333
2830.36759	0.04325
2828.30764	0.04315
2826.24769	0.04306
2824.18774	0.04298
2822.12780	0.04288
2820.06785	0.04281
2818.00790	0.04281
2815.94796	0.04279
2813.88801	0.04270
2811.82806	0.04259
2809.76811	0.04249
2807.70817	0.04241
2805.64822	0.04241
2803.58827	0.04243
2801.52832	0.04241
2799.46838	0.04234
2797.40843	0.04228
2795.34848	0.04223
2793.28853	0.04217
2791.22859	0.04214
2789.16864	0.04210
2787.10869	0.04204
2785.04875	0.04199
2782.98880	0.04199
2780.92885	0.04198
2778.86890	0.04195
2776.80896	0.04189
2774.74901	0.04183
2772.68906	0.04180
2770.62911	0.04179
2768.56917	0.04173
2766.50922	0.04165
2764.44927	0.04160
2762.38933	0.04156
2760.32938	0.04154
2758.26943	0.04155
2756.20948	0.04155
2754.14954	0.04146
2752.08959	0.04141
2750.02964	0.04139
2747.96969	0.04136
2745.90975	0.04133
2743.84980	0.04132
2741.78985	0.04127
2739.72991	0.04122
2737.66996	0.04123
2735.61001	0.04125
2733.55006	0.04121
2731.49012	0.04113
2729.43017	0.04105
2727.37022	0.04106
2725.31027	0.04110
2723.25033	0.04110
2721.19038	0.04107
2719.13043	0.04103
2717.07048	0.04095
2715.01054	0.04089
2712.95059	0.04091
2710.89064	0.04094
2708.83070	0.04090
2706.77075	0.04080
2704.71080	0.04076
2702.65085	0.04075
2700.59091	0.04071
2698.53096	0.04064
2696.47101	0.04058
2694.41106	0.04052
2692.35112	0.04046
2690.29117	0.04044
2688.23122	0.04045
2686.17128	0.04045
2684.11133	0.04044
2682.05138	0.04045
2679.99143	0.04046
2677.93149	0.04043
2675.87154	0.04039
2673.81159	0.04034
2671.75164	0.04029
2669.69170	0.04032
2667.63175	0.04042
2665.57180	0.04058
2663.51186	0.04072
2661.45191	0.04080
2659.39196	0.04088
2657.33201	0.04095
2655.27207	0.04095
2653.21212	0.04086
2651.15217	0.04076
2649.09222	0.04069
2647.03228	0.04064
2644.97233	0.04056
2642.91238	0.04047
2640.85243	0.04036
2638.79249	0.04024
2636.73254	0.04015
2634.67259	0.04008
2632.61265	0.03997
2630.55270	0.03985
2628.49275	0.03977
2626.43280	0.03972
2624.37286	0.03963
2622.31291	0.03950
2620.25296	0.03934
2618.19301	0.03921
2616.13307	0.03919
2614.07312	0.03921
2612.01317	0.03915
2609.95323	0.03903
2607.89328	0.03891
2605.83333	0.03883
2603.77338	0.03875
2601.71344	0.03865
2599.65349	0.03853
2597.59354	0.03840
2595.53359	0.03830
2593.47365	0.03827
2591.41370	0.03825
2589.35375	0.03820
2587.29381	0.03811
2585.23386	0.03802
2583.17391	0.03796
2581.11396	0.03788
2579.05402	0.03779
2576.99407	0.03776
2574.93412	0.03776
2572.87417	0.03772
2570.81423	0.03768
2568.75428	0.03766
2566.69433	0.03766
2564.63438	0.03759
2562.57444	0.03745
2560.51449	0.03733
2558.45454	0.03725
2556.39460	0.03717
2554.33465	0.03709
2552.27470	0.03704
2550.21475	0.03701
2548.15481	0.03700
2546.09486	0.03700
2544.03491	0.03695
2541.97496	0.03685
2539.91502	0.03671
2537.85507	0.03661
2535.79512	0.03661
2533.73518	0.03667
2531.67523	0.03670
2529.61528	0.03664
2527.55533	0.03656
2525.49539	0.03645
2523.43544	0.03638
2521.37549	0.03636
2519.31554	0.03631
2517.25560	0.03622
2515.19565	0.03619
2513.13570	0.03619
2511.07576	0.03619
2509.01581	0.03620
2506.95586	0.03617
2504.89591	0.03609
2502.83597	0.03607
2500.77602	0.03611
2498.71607	0.03618
2496.65612	0.03621
2494.59618	0.03613
2492.53623	0.03597
2490.47628	0.03587
2488.41633	0.03585
2486.35639	0.03581
2484.29644	0.03574
2482.23649	0.03575
2480.17655	0.03579
2478.11660	0.03577
2476.05665	0.03571
2473.99670	0.03565
2471.93676	0.03564
2469.87681	0.03569
2467.81686	0.03578
2465.75691	0.03584
2463.69697	0.03586
2461.63702	0.03593
2459.57707	0.03607
2457.51713	0.03615
2455.45718	0.03609
2453.39723	0.03596
2451.33728	0.03583
2449.27734	0.03576
2447.21739	0.03571
2445.15744	0.03566
2443.09749	0.03553
2441.03755	0.03531
2438.97760	0.03518
2436.91765	0.03523
2434.85771	0.03525
2432.79776	0.03510
2430.73781	0.03498
2428.67786	0.03495
2426.61792	0.03491
2424.55797	0.03488
2422.49802	0.03488
2420.43807	0.03487
2418.37813	0.03484
2416.31818	0.03478
2414.25823	0.03470
2412.19828	0.03464
2410.13834	0.03453
2408.07839	0.03438
2406.01844	0.03426
2403.95850	0.03419
2401.89855	0.03421
2399.83860	0.03425
2397.77865	0.03421
2395.71871	0.03408
2393.65876	0.03401
2391.59881	0.03406
2389.53886	0.03407
2387.47892	0.03400
2385.41897	0.03399
2383.35902	0.03401
2381.29908	0.03399
2379.23913	0.03392
2377.17918	0.03379
2375.11923	0.03360
2373.05929	0.03343
2370.99934	0.03335
2368.93939	0.03329
2366.87944	0.03332
2364.81950	0.03363
2362.75955	0.03396
2360.69960	0.03404
2358.63966	0.03408
2356.57971	0.03424
2354.51976	0.03449
2352.45981	0.03480
2350.39987	0.03487
2348.33992	0.03462
2346.27997	0.03433
2344.22002	0.03422
2342.16008	0.03421
2340.10013	0.03428
2338.04018	0.03433
2335.98023	0.03428
2333.92029	0.03425
2331.86034	0.03446
2329.80039	0.03517
2327.74045	0.03645
2325.68050	0.03749
2323.62055	0.03739
2321.56060	0.03673
2319.50066	0.03624
2317.44071	0.03590
2315.38076	0.03571
2313.32081	0.03569
2311.26087	0.03563
2309.20092	0.03550
2307.14097	0.03544
2305.08103	0.03539
2303.02108	0.03525
2300.96113	0.03516
2298.90118	0.03525
2296.84124	0.03543
2294.78129	0.03570
2292.72134	0.03598
2290.66139	0.03610
2288.60145	0.03601
2286.54150	0.03579
2284.48155	0.03541
2282.42161	0.03505
2280.36166	0.03484
2278.30171	0.03462
2276.24176	0.03437
2274.18182	0.03421
2272.12187	0.03403
2270.06192	0.03371
2268.00197	0.03343
2265.94203	0.03329
2263.88208	0.03328
2261.82213	0.03343
2259.76218	0.03364
2257.70224	0.03349
2255.64229	0.03304
2253.58234	0.03282
2251.52240	0.03282
2249.46245	0.03288
2247.40250	0.03303
2245.34255	0.03316
2243.28261	0.03312
2241.22266	0.03301
2239.16271	0.03288
2237.10276	0.03275
2235.04282	0.03273
2232.98287	0.03286
2230.92292	0.03291
2228.86298	0.03267
2226.80303	0.03230
2224.74308	0.03200
2222.68313	0.03185
2220.62319	0.03183
2218.56324	0.03173
2216.50329	0.03155
2214.44334	0.03157
2212.38340	0.03178
2210.32345	0.03193
2208.26350	0.03189
2206.20356	0.03183
2204.14361	0.03171
2202.08366	0.03150
2200.02371	0.03157
2197.96377	0.03197
2195.90382	0.03219
2193.84387	0.03217
2191.78392	0.03218
2189.72398	0.03221
2187.66403	0.03204
2185.60408	0.03147
2183.54413	0.03065
2181.48419	0.03030
2179.42424	0.03037
2177.36429	0.03014
2175.30435	0.02987
2173.24440	0.03028
2171.18445	0.03123
2169.12450	0.03233
2167.06456	0.03307
2165.00461	0.03293
2162.94466	0.03140
2160.88471	0.02768
2158.82477	0.02371
2156.76482	0.02287
2154.70487	0.02430
2152.64493	0.02568
2150.58498	0.02615
2148.52503	0.02601
2146.46508	0.02603
2144.40514	0.02636
2142.34519	0.02672
2140.28524	0.02705
2138.22529	0.02708
2136.16535	0.02659
2134.10540	0.02643
2132.04545	0.02708
2129.98551	0.02782
2127.92556	0.02821
2125.86561	0.02848
2123.80566	0.02878
2121.74572	0.02911
2119.68577	0.02952
2117.62582	0.03008
2115.56587	0.03051
2113.50593	0.03059
2111.44598	0.03051
2109.38603	0.03051
2107.32608	0.03052
2105.26614	0.03050
2103.20619	0.03053
2101.14624	0.03059
2099.08630	0.03041
2097.02635	0.02980
2094.96640	0.02925
2092.90645	0.02921
2090.84651	0.02942
2088.78656	0.02971
2086.72661	0.03008
2084.66666	0.03038
2082.60672	0.03056
2080.54677	0.03065
2078.48682	0.03079
2076.42688	0.03076
2074.36693	0.03031
2072.30698	0.02984
2070.24703	0.02969
2068.18709	0.02970
2066.12714	0.02974
2064.06719	0.02987
2062.00724	0.02997
2059.94730	0.02992
2057.88735	0.02977
2055.82740	0.02975
2053.76746	0.03045
2051.70751	0.03125
2049.64756	0.03098
2047.58761	0.03024
2045.52767	0.02976
2043.46772	0.02939
2041.40777	0.02928
2039.34782	0.02938
2037.28788	0.02924
2035.22793	0.02860
2033.16798	0.02776
2031.10803	0.02712
2029.04809	0.02679
2026.98814	0.02686
2024.92819	0.02715
2022.86825	0.02721
2020.80830	0.02714
2018.74835	0.02735
2016.68840	0.02759
2014.62846	0.02745
2012.56851	0.02715
2010.50856	0.02687
2008.44861	0.02630
2006.38867	0.02590
2004.32872	0.02639
2002.26877	0.02723
2000.20883	0.02779
1998.14888	0.02805
1996.08893	0.02824
1994.02898	0.02860
1991.96904	0.02898
1989.90909	0.02925
1987.84914	0.02950
1985.78919	0.02973
1983.72925	0.03008
1981.66930	0.03032
1979.60935	0.02910
1977.54941	0.02667
1975.48946	0.02541
1973.42951	0.02570
1971.36956	0.02628
1969.30962	0.02664
1967.24967	0.02662
1965.18972	0.02629
1963.12977	0.02616
1961.06983	0.02605
1959.00988	0.02572
1956.94993	0.02583
1954.88998	0.02648
1952.83004	0.02712
1950.77009	0.02747
1948.71014	0.02746
1946.65020	0.02725
1944.59025	0.02716
1942.53030	0.02717
1940.47035	0.02707
1938.41041	0.02710
1936.35046	0.02727
1934.29051	0.02733
1932.23056	0.02733
1930.17062	0.02733
1928.11067	0.02732
1926.05072	0.02746
1923.99078	0.02787
1921.93083	0.02826
1919.87088	0.02836
1917.81093	0.02840
1915.75099	0.02834
1913.69104	0.02813
1911.63109	0.02806
1909.57114	0.02824
1907.51120	0.02846
1905.45125	0.02854
1903.39130	0.02854
1901.33136	0.02863
1899.27141	0.02881
1897.21146	0.02905
1895.15151	0.02921
1893.09157	0.02922
1891.03162	0.02931
1888.97167	0.02945
1886.91172	0.02930
1884.85178	0.02907
1882.79183	0.02905
1880.73188	0.02912
1878.67193	0.02916
1876.61199	0.02919
1874.55204	0.02922
1872.49209	0.02926
1870.43215	0.02944
1868.37220	0.02971
1866.31225	0.02961
1864.25230	0.02928
1862.19236	0.02908
1860.13241	0.02903
1858.07246	0.02898
1856.01251	0.02883
1853.95257	0.02866
1851.89262	0.02857
1849.83267	0.02854
1847.77273	0.02862
1845.71278	0.02884
1843.65283	0.02912
1841.59288	0.02900
1839.53294	0.02867
1837.47299	0.02850
1835.41304	0.02839
1833.35309	0.02831
1831.29315	0.02853
1829.23320	0.02892
1827.17325	0.02899
1825.11331	0.02891
1823.05336	0.02875
1820.99341	0.02837
1818.93346	0.02805
1816.87352	0.02803
1814.81357	0.02823
1812.75362	0.02850
1810.69367	0.02877
1808.63373	0.02890
1806.57378	0.02892
1804.51383	0.02901
1802.45388	0.02926
1800.39394	0.02947
1798.33399	0.02943
1796.27404	0.02935
1794.21410	0.02949
1792.15415	0.02984
1790.09420	0.02982
1788.03425	0.02945
1785.97431	0.02928
1783.91436	0.02933
1781.85441	0.02943
1779.79446	0.02948
1777.73452	0.02945
1775.67457	0.02954
1773.61462	0.02992
1771.55468	0.03036
1769.49473	0.03030
1767.43478	0.02994
1765.37483	0.02963
1763.31489	0.02963
1761.25494	0.02989
1759.19499	0.03001
1757.13504	0.03009
1755.07510	0.03011
1753.01515	0.03021
1750.95520	0.03083
1748.89526	0.03152
1746.83531	0.03163
1744.77536	0.03154
1742.71541	0.03152
1740.65547	0.03168
1738.59552	0.03184
1736.53557	0.03195
1734.47562	0.03261
1732.41568	0.03325
1730.35573	0.03296
1728.29578	0.03250
1726.23583	0.03228
1724.17589	0.03238
1722.11594	0.03255
1720.05599	0.03281
1717.99605	0.03367
1715.93610	0.03443
1713.87615	0.03419
1711.81620	0.03378
1709.75626	0.03364
1707.69631	0.03384
1705.63636	0.03433
1703.57641	0.03458
1701.51647	0.03489
1699.45652	0.03581
1697.39657	0.03630
1695.33663	0.03616
1693.27668	0.03582
1691.21673	0.03577
1689.15678	0.03616
1687.09684	0.03658
1685.03689	0.03753
1682.97694	0.03867
1680.91699	0.03850
1678.85705	0.03803
1676.79710	0.03804
1674.73715	0.03855
1672.67721	0.03899
1670.61726	0.03946
1668.55731	0.03996
1666.49736	0.03985
1664.43742	0.03979
1662.37747	0.04019
1660.31752	0.04042
1658.25757	0.04040
1656.19763	0.04059
1654.13768	0.04163
1652.07773	0.04292
1650.01778	0.04277
1647.95784	0.04280
1645.89789	0.04321
1643.83794	0.04290
1641.77800	0.04245
1639.71805	0.04243
1637.65810	0.04295
1635.59815	0.04390
1633.53821	0.04399
1631.47826	0.04349
1629.41831	0.04336
1627.35836	0.04361
1625.29842	0.04390
1623.23847	0.04423
1621.17852	0.04426
1619.11858	0.04405
1617.05863	0.04424
1614.99868	0.04436
1612.93873	0.04401
1610.87879	0.04384
1608.81884	0.04392
1606.75889	0.04390
1604.69894	0.04376
1602.63900	0.04368
1600.57905	0.04364
1598.51910	0.04357
1596.45916	0.04354
1594.39921	0.04348
1592.33926	0.04335
1590.27931	0.04320
1588.21937	0.04308
1586.15942	0.04298
1584.09947	0.04289
1582.03952	0.04278
1579.97958	0.04266
1577.91963	0.04278
1575.85968	0.04311
1573.79973	0.04287
1571.73979	0.04251
1569.67984	0.04264
1567.61989	0.04263
1565.55995	0.04224
1563.50000	0.04191
1561.44005	0.04185
1559.38010	0.04284
1557.32016	0.04345
1555.26021	0.04252
1553.20026	0.04175
1551.14031	0.04139
1549.08037	0.04112
1547.02042	0.04091
1544.96047	0.04113
1542.90053	0.04171
1540.84058	0.04218
1538.78063	0.04172
1536.72068	0.04074
1534.66074	0.04031
1532.60079	0.04028
1530.54084	0.03996
1528.48089	0.03973
1526.42095	0.03981
1524.36100	0.03984
1522.30105	0.03997
1520.24111	0.04005
1518.18116	0.03979
1516.12121	0.03940
1514.06126	0.03883
1512.00132	0.03846
1509.94137	0.03866
1507.88142	0.03930
1505.82147	0.03908
1503.76153	0.03788
1501.70158	0.03711
1499.64163	0.03691
1497.58168	0.03702
1495.52174	0.03678
1493.46179	0.03632
1491.40184	0.03637
1489.34190	0.03679
1487.28195	0.03648
1485.22200	0.03574
1483.16205	0.03533
1481.10211	0.03525
1479.04216	0.03526
1476.98221	0.03550
1474.92226	0.03610
1472.86232	0.03672
1470.80237	0.03668
1468.74242	0.03627
1466.68248	0.03626
1464.62253	0.03658
1462.56258	0.03660
1460.50263	0.03659
1458.44269	0.03727
1456.38274	0.03805
1454.32279	0.03756
1452.26284	0.03688
1450.20290	0.03663
1448.14295	0.03669
1446.08300	0.03659
1444.02306	0.03631
1441.96311	0.03619
1439.90316	0.03630
1437.84321	0.03669
1435.78327	0.03716
1433.72332	0.03712
1431.66337	0.03702
1429.60342	0.03711
1427.54348	0.03712
1425.48353	0.03717
1423.42358	0.03738
1421.36363	0.03760
1419.30369	0.03808
1417.24374	0.03830
1415.18379	0.03788
1413.12385	0.03758
1411.06390	0.03752
1409.00395	0.03746
1406.94400	0.03749
1404.88406	0.03764
1402.82411	0.03763
1400.76416	0.03767
1398.70421	0.03800
1396.64427	0.03828
1394.58432	0.03820
1392.52437	0.03780
1390.46443	0.03751
1388.40448	0.03762
1386.34453	0.03775
1384.28458	0.03754
1382.22464	0.03740
1380.16469	0.03751
1378.10474	0.03763
1376.04479	0.03778
1373.98485	0.03789
1371.92490	0.03768
1369.86495	0.03742
1367.80501	0.03727
1365.74506	0.03715
1363.68511	0.03724
1361.62516	0.03728
1359.56522	0.03695
1357.50527	0.03660
1355.44532	0.03643
1353.38537	0.03631
1351.32543	0.03619
1349.26548	0.03608
1347.20553	0.03595
1345.14558	0.03583
1343.08564	0.03586
1341.02569	0.03614
1338.96574	0.03637
1336.90580	0.03615
1334.84585	0.03571
1332.78590	0.03540
1330.72595	0.03528
1328.66601	0.03525
1326.60606	0.03523
1324.54611	0.03521
1322.48616	0.03524
1320.42622	0.03533
1318.36627	0.03541
1316.30632	0.03540
1314.24638	0.03534
1312.18643	0.03522
1310.12648	0.03508
1308.06653	0.03505
1306.00659	0.03506
1303.94664	0.03506
1301.88669	0.03510
1299.82674	0.03516
1297.76680	0.03521
1295.70685	0.03525
1293.64690	0.03531
1291.58696	0.03547
1289.52701	0.03567
1287.46706	0.03583
1285.40711	0.03594
1283.34717	0.03608
1281.28722	0.03626
1279.22727	0.03643
1277.16732	0.03656
1275.10738	0.03672
1273.04743	0.03692
1270.98748	0.03711
1268.92753	0.03722
1266.86759	0.03733
1264.80764	0.03746
1262.74769	0.03759
1260.68775	0.03771
1258.62780	0.03785
1256.56785	0.03803
1254.50790	0.03826
1252.44796	0.03853
1250.38801	0.03884
1248.32806	0.03920
1246.26811	0.03956
1244.20817	0.03989
1242.14822	0.04021
1240.08827	0.04057
1238.02833	0.04094
1235.96838	0.04132
1233.90843	0.04172
1231.84848	0.04215
1229.78854	0.04259
1227.72859	0.04308
1225.66864	0.04367
1223.60869	0.04438
1221.54875	0.04525
1219.48880	0.04622
1217.42885	0.04721
1215.36891	0.04825
1213.30896	0.04938
1211.24901	0.05053
1209.18906	0.05167
1207.12912	0.05283
1205.06917	0.05395
1203.00922	0.05499
1200.94927	0.05604
1198.88933	0.05712
1196.82938	0.05813
1194.76943	0.05909
1192.70949	0.06009
1190.64954	0.06115
1188.58959	0.06224
1186.52964	0.06336
1184.46970	0.06456
1182.40975	0.06582
1180.34980	0.06717
1178.28985	0.06868
1176.22991	0.07033
1174.16996	0.07219
1172.11001	0.07428
1170.05006	0.07655
1167.99012	0.07894
1165.93017	0.08131
1163.87022	0.08327
1161.81028	0.08415
1159.75033	0.08366
1157.69038	0.08242
1155.63043	0.08151
1153.57049	0.08145
1151.51054	0.08204
1149.45059	0.08295
1147.39064	0.08407
1145.33070	0.08535
1143.27075	0.08676
1141.21080	0.08825
1139.15086	0.08983
1137.09091	0.09152
1135.03096	0.09333
1132.97101	0.09519
1130.91107	0.09713
1128.85112	0.09915
1126.79117	0.10121
1124.73122	0.10335
1122.67128	0.10561
1120.61133	0.10792
1118.55138	0.11021
1116.49144	0.11256
1114.43149	0.11494
1112.37154	0.11734
1110.31159	0.11978
1108.25165	0.12231
1106.19170	0.12492
1104.13175	0.12759
1102.07180	0.13030
1100.01186	0.13309
1097.95191	0.13596
1095.89196	0.13885
1093.83201	0.14173
1091.77207	0.14454
1089.71212	0.14720
1087.65217	0.14971
1085.59223	0.15205
1083.53228	0.15413
1081.47233	0.15599
1079.41238	0.15768
1077.35244	0.15919
1075.29249	0.16052
1073.23254	0.16174
1071.17259	0.16296
1069.11265	0.16421
1067.05270	0.16548
1064.99275	0.16687
1062.93281	0.16833
1060.87286	0.16958
1058.81291	0.17050
1056.75296	0.17118
1054.69302	0.17165
1052.63307	0.17189
1050.57312	0.17209
1048.51317	0.17230
1046.45323	0.17247
1044.39328	0.17262
1042.33333	0.17280
1040.27339	0.17300
1038.21344	0.17321
1036.15349	0.17334
1034.09354	0.17331
1032.03360	0.17313
1029.97365	0.17283
1027.91370	0.17237
1025.85375	0.17179
1023.79381	0.17124
1021.73386	0.17075
1019.67391	0.17028
1017.61396	0.16984
1015.55402	0.16944
1013.49407	0.16905
1011.43412	0.16864
1009.37418	0.16818
1007.31423	0.16765
1005.25428	0.16702
1003.19433	0.16628
1001.13439	0.16548
999.07444	0.16454
997.01449	0.16349
994.95454	0.16242
992.89460	0.16143
990.83465	0.16048
988.77470	0.15948
986.71476	0.15842
984.65481	0.15729
982.59486	0.15610
980.53491	0.15494
978.47497	0.15383
976.41502	0.15265
974.35507	0.15138
972.29512	0.15008
970.23518	0.14877
968.17523	0.14741
966.11528	0.14606
964.05534	0.14467
961.99539	0.14316
959.93544	0.14157
957.87549	0.13999
955.81555	0.13847
953.75560	0.13697
951.69565	0.13543
949.63570	0.13390
947.57576	0.13243
945.51581	0.13102
943.45586	0.12960
941.39591	0.12818
939.33597	0.12680
937.27602	0.12540
935.21607	0.12399
933.15613	0.12264
931.09618	0.12137
929.03623	0.12017
926.97628	0.11902
924.91634	0.11784
922.85639	0.11672
920.79644	0.11576
918.73649	0.11482
916.67655	0.11388
914.61660	0.11289
912.55665	0.11176
910.49671	0.11046
908.43676	0.10899
906.37681	0.10745
904.31686	0.10585
902.25692	0.10417
900.19697	0.10257
898.13702	0.10110
896.07707	0.09964
894.01713	0.09814
891.95718	0.09667
889.89723	0.09523
887.83729	0.09378
885.77734	0.09237
883.71739	0.09103
881.65744	0.08977
879.59750	0.08849
877.53755	0.08718
875.47760	0.08586
873.41765	0.08452
871.35771	0.08317
869.29776	0.08186
867.23781	0.08060
865.17786	0.07938
863.11792	0.07816
861.05797	0.07686
858.99802	0.07544
856.93808	0.07408
854.87813	0.07288
852.81818	0.07171
850.75823	0.07056
848.69829	0.06951
846.63834	0.06851
844.57839	0.06760
842.51844	0.06687
840.45850	0.06628
838.39855	0.06575
836.33860	0.06528
834.27866	0.06485
832.21871	0.06457
830.15876	0.06443
828.09881	0.06429
826.03887	0.06421
823.97892	0.06438
821.91897	0.06491
819.85902	0.06578
817.79908	0.06701
815.73913	0.06868
813.67918	0.07102
811.61924	0.07452
809.55929	0.07957
807.49934	0.08622
805.43939	0.09420
803.37945	0.10282
801.31950	0.11120
799.25955	0.11835
797.19960	0.12317
795.13966	0.12527
793.07971	0.12546
791.01976	0.12493
788.95981	0.12477
786.89987	0.12589
784.83992	0.12864
782.77997	0.13268
780.72003	0.13708
778.66008	0.14048
776.60013	0.14181
774.54018	0.14080
772.48024	0.13806
770.42029	0.13446
768.36034	0.13068
766.30039	0.12711
764.24045	0.12381
762.18050	0.12071
760.12055	0.11776
758.06061	0.11493
756.00066	0.11221
753.94071	0.10964
751.88076	0.10728
749.82082	0.10507
747.76087	0.10297
745.70092	0.10095
743.64097	0.09897
741.58103	0.09707
739.52108	0.09532
737.46113	0.09370
735.40119	0.09227
733.34124	0.09099
731.28129	0.08980
729.22134	0.08869
727.16140	0.08764
725.10145	0.08671
723.04150	0.08591
720.98155	0.08516
718.92161	0.08446
716.86166	0.08383
714.80171	0.08339
712.74176	0.08317
710.68182	0.08314
708.62187	0.08337
706.56192	0.08405
704.50198	0.08557
702.44203	0.08838
700.38208	0.09289
698.32213	0.09902
696.26219	0.10513
694.20224	0.10840
692.14229	0.10757
690.08234	0.10405
688.02240	0.09979
685.96245	0.09582
683.90250	0.09246
681.84256	0.08977
679.78261	0.08750
677.72266	0.08548
675.66271	0.08376
673.60277	0.08231
671.54282	0.08102
669.48287	0.07970
667.42292	0.07827
665.36298	0.07703
663.30303	0.07595
661.24308	0.07498
659.18314	0.07412
657.12319	0.07328
655.06324	0.07262
653.00329	0.07216
650.94335	0.07170
648.88340	0.07118
646.82345	0.07070
644.76350	0.07036
642.70356	0.07009
640.64361	0.06974
638.58366	0.06933
636.52371	0.06903
634.46377	0.06882
632.40382	0.06856
630.34387	0.06814
628.28393	0.06761
626.22398	0.06712
624.16403	0.06673
622.10408	0.06634
620.04414	0.06607
617.98419	0.06598
615.92424	0.06598
613.86429	0.06601
611.80435	0.06607
609.74440	0.06612
607.68445	0.06611
605.62451	0.06604
603.56456	0.06593
601.50461	0.06581
599.44466	0.06567
597.38472	0.06553
595.32477	0.06545
593.26482	0.06547
591.20487	0.06548
589.14493	0.06541
587.08498	0.06545
585.02503	0.06568
582.96509	0.06598
580.90514	0.06624
578.84519	0.06642
576.78524	0.06659
574.72530	0.06679
572.66535	0.06701
570.60540	0.06733
568.54545	0.06774
566.48551	0.06820
564.42556	0.06863
562.36561	0.06913
560.30566	0.06982
558.24572	0.07058
556.18577	0.07145
554.12582	0.07274
552.06588	0.07441
550.00593	0.07637
547.94598	0.07877
545.88603	0.08175
543.82609	0.08519
541.76614	0.08900
539.70619	0.09303
537.64624	0.09707
535.58630	0.10113
533.52635	0.10496
531.46640	0.10832
529.40646	0.11136
527.34651	0.11429
525.28656	0.11718
523.22661	0.11977
521.16667	0.12190
519.10672	0.12365
517.04677	0.12473
514.98682	0.12495
512.92688	0.12456
510.86693	0.12380
508.80698	0.12306
506.74704	0.12306
504.68709	0.12434
502.62714	0.12696
500.56719	0.13029
498.50725	0.13369
496.44730	0.13711
494.38735	0.14081
492.32740	0.14494
490.26746	0.14897
488.20751	0.15284
486.14756	0.15711
484.08761	0.16171
482.02767	0.16662
479.96772	0.17194
477.90777	0.17743
475.84783	0.18309
473.78788	0.18931
471.72793	0.19585
469.66798	0.20181
467.60804	0.20737
465.54809	0.21235
463.48814	0.21637
461.42819	0.22002
459.36825	0.22380
457.30830	0.22735
455.24835	0.22930
453.18841	0.23004
451.12846	0.23057
449.06851	0.23083
447.00856	0.23043
444.94862	0.22935
442.88867	0.22768
440.82872	0.22533
438.76877	0.22323
436.70883	0.22184
434.64888	0.22034
432.58893	0.21819
430.52899	0.21563
428.46904	0.21308
426.40909	0.21124
424.34914	0.20980
422.28920	0.20769
420.22925	0.20440
418.16930	0.19855
416.10935	0.19138
414.04941	0.18408
411.98946	0.17600
409.92951	0.16752
407.86956	0.15983
405.80962	0.15478
403.74967	0.15493
401.68972	0.16231
399.62978	0.17759
