3996.29776	0.03638
3994.23781	0.03636
3992.17786	0.03631
3990.11791	0.03639
3988.05797	0.03645
3985.99802	0.03635
3983.93807	0.03630
3981.87813	0.03632
3979.81818	0.03630
3977.75823	0.03630
3975.69828	0.03637
3973.63834	0.03639
3971.57839	0.03627
3969.51844	0.03621
3967.45849	0.03626
3965.39855	0.03624
3963.33860	0.03619
3961.27865	0.03619
3959.21870	0.03608
3957.15876	0.03597
3955.09881	0.03593
3953.03886	0.03594
3950.97892	0.03606
3948.91897	0.03629
3946.85902	0.03638
3944.79907	0.03637
3942.73913	0.03656
3940.67918	0.03660
3938.61923	0.03632
3936.55928	0.03607
3934.49934	0.03605
3932.43939	0.03640
3930.37944	0.03665
3928.31950	0.03638
3926.25955	0.03613
3924.19960	0.03618
3922.13965	0.03610
3920.07971	0.03598
3918.01976	0.03628
3915.95981	0.03656
3913.89986	0.03629
3911.83992	0.03591
3909.77997	0.03574
3907.72002	0.03562
3905.66008	0.03586
3903.60013	0.03663
3901.54018	0.03731
3899.48023	0.03753
3897.42029	0.03710
3895.36034	0.03622
3893.30039	0.03583
3891.24044	0.03614
3889.18050	0.03593
3887.12055	0.03558
3885.06060	0.03612
3883.00065	0.03650
3880.94071	0.03660
3878.88076	0.03651
3876.82081	0.03588
3874.76087	0.03571
3872.70092	0.03599
3870.64097	0.03643
3868.58102	0.03679
3866.52108	0.03646
3864.46113	0.03653
3862.40118	0.03682
3860.34123	0.03627
3858.28129	0.03542
3856.22134	0.03492
3854.16139	0.03604
3852.10145	0.03796
3850.04150	0.03736
3847.98155	0.03598
3845.92160	0.03521
3843.86166	0.03518
3841.80171	0.03550
3839.74176	0.03598
3837.68181	0.03661
3835.62187	0.03666
3833.56192	0.03631
3831.50197	0.03612
3829.44203	0.03587
3827.38208	0.03563
3825.32213	0.03538
3823.26218	0.03519
3821.20224	0.03598
3819.14229	0.03652
3817.08234	0.03621
3815.02239	0.03625
3812.96245	0.03576
3810.90250	0.03482
3808.84255	0.03450
3806.78260	0.03518
3804.72266	0.03554
3802.66271	0.03571
3800.60276	0.03649
3798.54282	0.03642
3796.48287	0.03600
3794.42292	0.03567
3792.36297	0.03512
3790.30303	0.03474
3788.24308	0.03466
3786.18313	0.03483
3784.12318	0.03500
3782.06324	0.03488
3780.00329	0.03503
3777.94334	0.03532
3775.88340	0.03504
3773.82345	0.03454
3771.76350	0.03457
3769.70355	0.03522
3767.64361	0.03547
3765.58366	0.03531
3763.52371	0.03503
3761.46376	0.03464
3759.40382	0.03483
3757.34387	0.03519
3755.28392	0.03482
3753.22398	0.03451
3751.16403	0.03550
3749.10408	0.03645
3747.04413	0.03592
3744.98419	0.03599
3742.92424	0.03660
3740.86429	0.03582
3738.80434	0.03480
3736.74440	0.03494
3734.68445	0.03601
3732.62450	0.03637
3730.56455	0.03576
3728.50461	0.03508
3726.44466	0.03499
3724.38471	0.03517
3722.32477	0.03513
3720.26482	0.03507
3718.20487	0.03487
3716.14492	0.03443
3714.08498	0.03419
3712.02503	0.03499
3709.96508	0.03601
3707.90513	0.03578
3705.84519	0.03510
3703.78524	0.03486
3701.72529	0.03541
3699.66535	0.03583
3697.60540	0.03563
3695.54545	0.03528
3693.48550	0.03498
3691.42556	0.03511
3689.36561	0.03613
3687.30566	0.03673
3685.24571	0.03600
3683.18577	0.03505
3681.12582	0.03460
3679.06587	0.03448
3677.00593	0.03496
3674.94598	0.03629
3672.88603	0.03631
3670.82608	0.03609
3668.76614	0.03663
3666.70619	0.03621
3664.64624	0.03541
3662.58629	0.03516
3660.52635	0.03512
3658.46640	0.03509
3656.40645	0.03549
3654.34651	0.03553
3652.28656	0.03496
3650.22661	0.03571
3648.16666	0.03778
3646.10672	0.03794
3644.04677	0.03690
3641.98682	0.03626
3639.92687	0.03607
3637.86693	0.03598
3635.80698	0.03598
3633.74703	0.03598
3631.68708	0.03593
3629.62714	0.03694
3627.56719	0.03849
3625.50724	0.03806
3623.44730	0.03703
3621.38735	0.03675
3619.32740	0.03743
3617.26745	0.03798
3615.20751	0.03779
3613.14756	0.03759
3611.08761	0.03745
3609.02766	0.03763
3606.96772	0.03800
3604.90777	0.03768
3602.84782	0.03715
3600.78788	0.03713
3598.72793	0.03727
3596.66798	0.03736
3594.60803	0.03757
3592.54809	0.03740
3590.48814	0.03691
3588.42819	0.03722
3586.36824	0.03813
3584.30830	0.03802
3582.24835	0.03744
3580.18840	0.03718
3578.12846	0.03719
3576.06851	0.03734
3574.00856	0.03743
3571.94861	0.03721
3569.88867	0.03714
3567.82872	0.03808
3565.76877	0.03911
3563.70882	0.03877
3561.64888	0.03815
3559.58893	0.03801
3557.52898	0.03794
3555.46903	0.03780
3553.40909	0.03790
3551.34914	0.03810
3549.28919	0.03811
3547.22925	0.03839
3545.16930	0.03889
3543.10935	0.03887
3541.04940	0.03854
3538.98946	0.03839
3536.92951	0.03848
3534.86956	0.03856
3532.80961	0.03851
3530.74967	0.03854
3528.68972	0.03873
3526.62977	0.03896
3524.56983	0.03916
3522.50988	0.03931
3520.44993	0.03927
3518.38998	0.03916
3516.33004	0.03904
3514.27009	0.03889
3512.21014	0.03890
3510.15019	0.03915
3508.09025	0.03930
3506.03030	0.03924
3503.97035	0.03942
3501.91041	0.03978
3499.85046	0.03980
3497.79051	0.03957
3495.73056	0.03943
3493.67062	0.03942
3491.61067	0.03949
3489.55072	0.03964
3487.49077	0.03980
3485.43083	0.03980
3483.37088	0.03978
3481.31093	0.03989
3479.25098	0.03988
3477.19104	0.03979
3475.13109	0.03987
3473.07114	0.04007
3471.01120	0.04023
3468.95125	0.04022
3466.89130	0.04015
3464.83135	0.04017
3462.77141	0.04021
3460.71146	0.04023
3458.65151	0.04027
3456.59156	0.04039
3454.53162	0.04050
3452.47167	0.04049
3450.41172	0.04044
3448.35178	0.04054
3446.29183	0.04078
3444.23188	0.04087
3442.17193	0.04083
3440.11199	0.04086
3438.05204	0.04092
3435.99209	0.04088
3433.93214	0.04076
3431.87220	0.04067
3429.81225	0.04065
3427.75230	0.04071
3425.69236	0.04080
3423.63241	0.04089
3421.57246	0.04103
3419.51251	0.04115
3417.45257	0.04113
3415.39262	0.04102
3413.33267	0.04095
3411.27272	0.04098
3409.21278	0.04105
3407.15283	0.04102
3405.09288	0.04098
3403.03293	0.04100
3400.97299	0.04103
3398.91304	0.04112
3396.85309	0.04121
3394.79315	0.04121
3392.73320	0.04119
3390.67325	0.04120
3388.61330	0.04119
3386.55336	0.04122
3384.49341	0.04137
3382.43346	0.04147
3380.37351	0.04144
3378.31357	0.04138
3376.25362	0.04134
3374.19367	0.04132
3372.13373	0.04130
3370.07378	0.04124
3368.01383	0.04122
3365.95388	0.04131
3363.89394	0.04140
3361.83399	0.04140
3359.77404	0.04133
3357.71409	0.04130
3355.65415	0.04136
3353.59420	0.04140
3351.53425	0.04138
3349.47431	0.04134
3347.41436	0.04129
3345.35441	0.04123
3343.29446	0.04118
3341.23452	0.04115
3339.17457	0.04118
3337.11462	0.04123
3335.05467	0.04119
3332.99473	0.04113
3330.93478	0.04115
3328.87483	0.04119
3326.81488	0.04122
3324.75494	0.04126
3322.69499	0.04128
3320.63504	0.04128
3318.57510	0.04128
3316.51515	0.04128
3314.45520	0.04123
3312.39525	0.04118
3310.33531	0.04119
3308.27536	0.04123
3306.21541	0.04124
3304.15546	0.04117
3302.09552	0.04107
3300.03557	0.04098
3297.97562	0.04093
3295.91568	0.04091
3293.85573	0.04094
3291.79578	0.04095
3289.73583	0.04091
3287.67589	0.04088
3285.61594	0.04084
3283.55599	0.04079
3281.49604	0.04080
3279.43610	0.04085
3277.37615	0.04087
3275.31620	0.04084
3273.25626	0.04080
3271.19631	0.04081
3269.13636	0.04084
3267.07641	0.04081
3265.01647	0.04075
3262.95652	0.04069
3260.89657	0.04061
3258.83662	0.04055
3256.77668	0.04047
3254.71673	0.04037
3252.65678	0.04035
3250.59683	0.04040
3248.53689	0.04041
3246.47694	0.04036
3244.41699	0.04030
3242.35705	0.04023
3240.29710	0.04014
3238.23715	0.04006
3236.17720	0.04005
3234.11726	0.04005
3232.05731	0.04004
3229.99736	0.04007
3227.93741	0.04010
3225.87747	0.04007
3223.81752	0.03996
3221.75757	0.03992
3219.69763	0.04000
3217.63768	0.04003
3215.57773	0.03994
3213.51778	0.03982
3211.45784	0.03971
3209.39789	0.03963
3207.33794	0.03958
3205.27799	0.03956
3203.21805	0.03954
3201.15810	0.03948
3199.09815	0.03943
3197.03821	0.03941
3194.97826	0.03935
3192.91831	0.03925
3190.85836	0.03919
3188.79842	0.03913
3186.73847	0.03907
3184.67852	0.03906
3182.61857	0.03912
3180.55863	0.03918
3178.49868	0.03918
3176.43873	0.03911
3174.37878	0.03897
3172.31884	0.03882
3170.25889	0.03873
3168.19894	0.03874
3166.13900	0.03875
3164.07905	0.03871
3162.01910	0.03864
3159.95915	0.03857
3157.89921	0.03851
3155.83926	0.03848
3153.77931	0.03846
3151.71936	0.03843
3149.65942	0.03840
3147.59947	0.03833
3145.53952	0.03820
3143.47958	0.03812
3141.41963	0.03811
3139.35968	0.03810
3137.29973	0.03804
3135.23979	0.03799
3133.17984	0.03800
3131.11989	0.03800
3129.05994	0.03791
3127.00000	0.03786
3124.94005	0.03782
3122.88010	0.03775
3120.82016	0.03777
3118.76021	0.03787
3116.70026	0.03789
3114.64031	0.03777
3112.58037	0.03761
3110.52042	0.03756
3108.46047	0.03760
3106.40052	0.03751
3104.34058	0.03730
3102.28063	0.03725
3100.22068	0.03736
3098.16073	0.03741
3096.10079	0.03738
3094.04084	0.03731
3091.98089	0.03723
3089.92095	0.03718
3087.86100	0.03715
3085.80105	0.03712
3083.74110	0.03707
3081.68116	0.03700
3079.62121	0.03696
3077.56126	0.03696
3075.50131	0.03694
3073.44137	0.03688
3071.38142	0.03682
3069.32147	0.03680
3067.26153	0.03675
3065.20158	0.03661
3063.14163	0.03645
3061.08168	0.03639
3059.02174	0.03642
3056.96179	0.03644
3054.90184	0.03641
3052.84189	0.03641
3050.78195	0.03647
3048.72200	0.03643
3046.66205	0.03631
3044.60211	0.03627
3042.54216	0.03623
3040.48221	0.03610
3038.42226	0.03599
3036.36232	0.03596
3034.30237	0.03597
3032.24242	0.03594
3030.18247	0.03591
3028.12253	0.03591
3026.06258	0.03590
3024.00263	0.03586
3021.94268	0.03586
3019.88274	0.03586
3017.82279	0.03578
3015.76284	0.03566
3013.70290	0.03559
3011.64295	0.03562
3009.58300	0.03564
3007.52305	0.03560
3005.46311	0.03551
3003.40316	0.03543
3001.34321	0.03537
2999.28326	0.03537
2997.22332	0.03542
2995.16337	0.03543
2993.10342	0.03540
2991.04348	0.03538
2988.98353	0.03537
2986.92358	0.03536
2984.86363	0.03539
2982.80369	0.03546
2980.74374	0.03548
2978.68379	0.03539
2976.62384	0.03528
2974.56390	0.03530
2972.50395	0.03535
2970.44400	0.03533
2968.38406	0.03533
2966.32411	0.03540
2964.26416	0.03550
2962.20421	0.03554
2960.14427	0.03548
2958.08432	0.03544
2956.02437	0.03549
2953.96442	0.03558
2951.90448	0.03567
2949.84453	0.03576
2947.78458	0.03582
2945.72463	0.03585
2943.66469	0.03589
2941.60474	0.03597
2939.54479	0.03612
2937.48485	0.03637
2935.42490	0.03659
2933.36495	0.03666
2931.30500	0.03666
2929.24506	0.03669
2927.18511	0.03684
2925.12516	0.03711
2923.06521	0.03731
2921.00527	0.03735
2918.94532	0.03727
2916.88537	0.03710
2914.82543	0.03683
2912.76548	0.03656
2910.70553	0.03634
2908.64558	0.03613
2906.58564	0.03596
2904.52569	0.03588
2902.46574	0.03582
2900.40579	0.03565
2898.34585	0.03549
2896.28590	0.03541
2894.22595	0.03536
2892.16601	0.03528
2890.10606	0.03519
2888.04611	0.03511
2885.98616	0.03504
2883.92622	0.03496
2881.86627	0.03487
2879.80632	0.03478
2877.74637	0.03474
2875.68643	0.03473
2873.62648	0.03471
2871.56653	0.03465
2869.50658	0.03463
2867.44664	0.03467
2865.38669	0.03470
2863.32674	0.03473
2861.26680	0.03479
2859.20685	0.03485
2857.14690	0.03495
2855.08695	0.03514
2853.02701	0.03534
2850.96706	0.03541
2848.90711	0.03530
2846.84716	0.03501
2844.78722	0.03469
2842.72727	0.03444
2840.66732	0.03423
2838.60738	0.03409
2836.54743	0.03399
2834.48748	0.03385
2832.42753	0.03369
2830.36759	0.03360
2828.30764	0.03354
2826.24769	0.03352
2824.18774	0.03351
2822.12780	0.03343
2820.06785	0.03333
2818.00790	0.03328
2815.94796	0.03322
2813.88801	0.03313
2811.82806	0.03304
2809.76811	0.03301
2807.70817	0.03300
2805.64822	0.03295
2803.58827	0.03286
2801.52832	0.03281
2799.46838	0.03281
2797.40843	0.03281
2795.34848	0.03277
2793.28853	0.03271
2791.22859	0.03267
2789.16864	0.03264
2787.10869	0.03261
2785.04875	0.03256
2782.98880	0.03252
2780.92885	0.03248
2778.86890	0.03244
2776.80896	0.03244
2774.74901	0.03245
2772.68906	0.03242
2770.62911	0.03231
2768.56917	0.03219
2766.50922	0.03211
2764.44927	0.03209
2762.38933	0.03207
2760.32938	0.03205
2758.26943	0.03208
2756.20948	0.03212
2754.14954	0.03208
2752.08959	0.03204
2750.02964	0.03203
2747.96969	0.03197
2745.90975	0.03192
2743.84980	0.03189
2741.78985	0.03183
2739.72991	0.03176
2737.66996	0.03177
2735.61001	0.03178
2733.55006	0.03176
2731.49012	0.03172
2729.43017	0.03166
2727.37022	0.03162
2725.31027	0.03164
2723.25033	0.03165
2721.19038	0.03160
2719.13043	0.03154
2717.07048	0.03149
2715.01054	0.03146
2712.95059	0.03147
2710.89064	0.03151
2708.83070	0.03149
2706.77075	0.03146
2704.71080	0.03142
2702.65085	0.03139
2700.59091	0.03137
2698.53096	0.03131
2696.47101	0.03123
2694.41106	0.03117
2692.35112	0.03112
2690.29117	0.03107
2688.23122	0.03104
2686.17128	0.03104
2684.11133	0.03107
2682.05138	0.03111
2679.99143	0.03109
2677.93149	0.03103
2675.87154	0.03099
2673.81159	0.03097
2671.75164	0.03097
2669.69170	0.03102
2667.63175	0.03116
2665.57180	0.03134
2663.51186	0.03153
2661.45191	0.03170
2659.39196	0.03183
2657.33201	0.03188
2655.27207	0.03183
2653.21212	0.03177
2651.15217	0.03171
2649.09222	0.03164
2647.03228	0.03160
2644.97233	0.03155
2642.91238	0.03144
2640.85243	0.03131
2638.79249	0.03122
2636.73254	0.03117
2634.67259	0.03111
2632.61265	0.03101
2630.55270	0.03085
2628.49275	0.03071
2626.43280	0.03065
2624.37286	0.03062
2622.31291	0.03056
2620.25296	0.03045
2618.19301	0.03033
2616.13307	0.03026
2614.07312	0.03020
2612.01317	0.03007
2609.95323	0.02988
2607.89328	0.02971
2605.83333	0.02967
2603.77338	0.02970
2601.71344	0.02964
2599.65349	0.02951
2597.59354	0.02944
2595.53359	0.02939
2593.47365	0.02934
2591.41370	0.02929
2589.35375	0.02926
2587.29381	0.02922
2585.23386	0.02915
2583.17391	0.02902
2581.11396	0.02888
2579.05402	0.02878
2576.99407	0.02873
2574.93412	0.02869
2572.87417	0.02866
2570.81423	0.02863
2568.75428	0.02854
2566.69433	0.02843
2564.63438	0.02846
2562.57444	0.02852
2560.51449	0.02846
2558.45454	0.02836
2556.39460	0.02827
2554.33465	0.02815
2552.27470	0.02803
2550.21475	0.02796
2548.15481	0.02793
2546.09486	0.02794
2544.03491	0.02791
2541.97496	0.02781
2539.91502	0.02770
2537.85507	0.02769
2535.79512	0.02774
2533.73518	0.02768
2531.67523	0.02759
2529.61528	0.02761
2527.55533	0.02769
2525.49539	0.02765
2523.43544	0.02754
2521.37549	0.02744
2519.31554	0.02732
2517.25560	0.02730
2515.19565	0.02737
2513.13570	0.02733
2511.07576	0.02722
2509.01581	0.02723
2506.95586	0.02731
2504.89591	0.02729
2502.83597	0.02718
2500.77602	0.02711
2498.71607	0.02716
2496.65612	0.02722
2494.59618	0.02721
2492.53623	0.02714
2490.47628	0.02705
2488.41633	0.02700
2486.35639	0.02700
2484.29644	0.02694
2482.23649	0.02693
2480.17655	0.02699
2478.11660	0.02700
2476.05665	0.02690
2473.99670	0.02679
2471.93676	0.02673
2469.87681	0.02678
2467.81686	0.02691
2465.75691	0.02696
2463.69697	0.02693
2461.63702	0.02695
2459.57707	0.02707
2457.51713	0.02717
2455.45718	0.02715
2453.39723	0.02705
2451.33728	0.02690
2449.27734	0.02677
2447.21739	0.02674
2445.15744	0.02675
2443.09749	0.02667
2441.03755	0.02651
2438.97760	0.02641
2436.91765	0.02647
2434.85771	0.02654
2432.79776	0.02643
2430.73781	0.02628
2428.67786	0.02618
2426.61792	0.02606
2424.55797	0.02595
2422.49802	0.02587
2420.43807	0.02587
2418.37813	0.02590
2416.31818	0.02586
2414.25823	0.02577
2412.19828	0.02571
2410.13834	0.02563
2408.07839	0.02546
2406.01844	0.02530
2403.95850	0.02526
2401.89855	0.02531
2399.83860	0.02532
2397.77865	0.02524
2395.71871	0.02514
2393.65876	0.02510
2391.59881	0.02509
2389.53886	0.02507
2387.47892	0.02505
2385.41897	0.02507
2383.35902	0.02509
2381.29908	0.02500
2379.23913	0.02486
2377.17918	0.02481
2375.11923	0.02475
2373.05929	0.02449
2370.99934	0.02421
2368.93939	0.02405
2366.87944	0.02409
2364.81950	0.02440
2362.75955	0.02482
2360.69960	0.02511
2358.63966	0.02522
2356.57971	0.02537
2354.51976	0.02570
2352.45981	0.02603
2350.39987	0.02606
2348.33992	0.02581
2346.27997	0.02557
2344.22002	0.02546
2342.16008	0.02537
2340.10013	0.02534
2338.04018	0.02537
2335.98023	0.02536
2333.92029	0.02536
2331.86034	0.02553
2329.80039	0.02629
2327.74045	0.02774
2325.68050	0.02886
2323.62055	0.02881
2321.56060	0.02816
2319.50066	0.02762
2317.44071	0.02723
2315.38076	0.02700
2313.32081	0.02694
2311.26087	0.02694
2309.20092	0.02689
2307.14097	0.02679
2305.08103	0.02664
2303.02108	0.02652
2300.96113	0.02656
2298.90118	0.02667
2296.84124	0.02678
2294.78129	0.02700
2292.72134	0.02732
2290.66139	0.02750
2288.60145	0.02750
2286.54150	0.02731
2284.48155	0.02692
2282.42161	0.02655
2280.36166	0.02629
2278.30171	0.02601
2276.24176	0.02574
2274.18182	0.02556
2272.12187	0.02538
2270.06192	0.02522
2268.00197	0.02504
2265.94203	0.02487
2263.88208	0.02492
2261.82213	0.02515
2259.76218	0.02523
2257.70224	0.02492
2255.64229	0.02446
2253.58234	0.02422
2251.52240	0.02408
2249.46245	0.02400
2247.40250	0.02410
2245.34255	0.02431
2243.28261	0.02443
2241.22266	0.02441
2239.16271	0.02427
2237.10276	0.02409
2235.04282	0.02406
2232.98287	0.02416
2230.92292	0.02414
2228.86298	0.02389
2226.80303	0.02365
2224.74308	0.02365
2222.68313	0.02374
2220.62319	0.02373
2218.56324	0.02359
2216.50329	0.02329
2214.44334	0.02307
2212.38340	0.02319
2210.32345	0.02347
2208.26350	0.02360
2206.20356	0.02353
2204.14361	0.02324
2202.08366	0.02285
2200.02371	0.02273
2197.96377	0.02296
2195.90382	0.02318
2193.84387	0.02325
2191.78392	0.02336
2189.72398	0.02362
2187.66403	0.02362
2185.60408	0.02291
2183.54413	0.02192
2181.48419	0.02173
2179.42424	0.02197
2177.36429	0.02153
2175.30435	0.02113
2173.24440	0.02169
2171.18445	0.02275
2169.12450	0.02381
2167.06456	0.02460
2165.00461	0.02464
2162.94466	0.02292
2160.88471	0.01853
2158.82477	0.01408
2156.76482	0.01330
2154.70487	0.01494
2152.64493	0.01631
2150.58498	0.01687
2148.52503	0.01712
2146.46508	0.01736
2144.40514	0.01763
2142.34519	0.01788
2140.28524	0.01801
2138.22529	0.01773
2136.16535	0.01718
2134.10540	0.01734
2132.04545	0.01829
2129.98551	0.01910
2127.92556	0.01963
2125.86561	0.02012
2123.80566	0.02047
2121.74572	0.02069
2119.68577	0.02098
2117.62582	0.02149
2115.56587	0.02198
2113.50593	0.02218
2111.44598	0.02218
2109.38603	0.02223
2107.32608	0.02226
2105.26614	0.02211
2103.20619	0.02197
2101.14624	0.02196
2099.08630	0.02180
2097.02635	0.02129
2094.96640	0.02093
2092.90645	0.02105
2090.84651	0.02138
2088.78656	0.02165
2086.72661	0.02191
2084.66666	0.02224
2082.60672	0.02250
2080.54677	0.02259
2078.48682	0.02253
2076.42688	0.02237
2074.36693	0.02217
2072.30698	0.02202
2070.24703	0.02190
2068.18709	0.02175
2066.12714	0.02164
2064.06719	0.02164
2062.00724	0.02168
2059.94730	0.02178
2057.88735	0.02194
2055.82740	0.02211
2053.76746	0.02287
2051.70751	0.02356
2049.64756	0.02306
2047.58761	0.02224
2045.52767	0.02170
2043.46772	0.02126
2041.40777	0.02126
2039.34782	0.02157
2037.28788	0.02146
2035.22793	0.02074
2033.16798	0.01998
2031.10803	0.01948
2029.04809	0.01910
2026.98814	0.01900
2024.92819	0.01920
2022.86825	0.01918
2020.80830	0.01885
2018.74835	0.01879
2016.68840	0.01894
2014.62846	0.01905
2012.56851	0.01933
2010.50856	0.01943
2008.44861	0.01877
2006.38867	0.01819
2004.32872	0.01869
2002.26877	0.01948
2000.20883	0.01976
1998.14888	0.01979
1996.08893	0.01989
1994.02898	0.02019
1991.96904	0.02072
1989.90909	0.02121
1987.84914	0.02142
1985.78919	0.02154
1983.72925	0.02221
1981.66930	0.02298
1979.60935	0.02194
1977.54941	0.01948
1975.48946	0.01810
1973.42951	0.01789
1971.36956	0.01806
1969.30962	0.01831
1967.24967	0.01822
1965.18972	0.01776
1963.12977	0.01740
1961.06983	0.01718
1959.00988	0.01706
1956.94993	0.01734
1954.88998	0.01798
1952.83004	0.01861
1950.77009	0.01898
1948.71014	0.01901
1946.65020	0.01888
1944.59025	0.01885
1942.53030	0.01901
1940.47035	0.01908
1938.41041	0.01905
1936.35046	0.01909
1934.29051	0.01914
1932.23056	0.01918
1930.17062	0.01921
1928.11067	0.01925
1926.05072	0.01935
1923.99078	0.01957
1921.93083	0.01991
1919.87088	0.02010
1917.81093	0.02020
1915.75099	0.02033
1913.69104	0.02032
1911.63109	0.02021
1909.57114	0.02027
1907.51120	0.02047
1905.45125	0.02063
1903.39130	0.02071
1901.33136	0.02076
1899.27141	0.02077
1897.21146	0.02088
1895.15151	0.02111
1893.09157	0.02122
1891.03162	0.02124
1888.97167	0.02127
1886.91172	0.02122
1884.85178	0.02121
1882.79183	0.02130
1880.73188	0.02136
1878.67193	0.02135
1876.61199	0.02138
1874.55204	0.02142
1872.49209	0.02147
1870.43215	0.02165
1868.37220	0.02184
1866.31225	0.02167
1864.25230	0.02131
1862.19236	0.02113
1860.13241	0.02112
1858.07246	0.02114
1856.01251	0.02104
1853.95257	0.02085
1851.89262	0.02070
1849.83267	0.02066
1847.77273	0.02064
1845.71278	0.02071
1843.65283	0.02086
1841.59288	0.02074
1839.53294	0.02050
1837.47299	0.02045
1835.41304	0.02044
1833.35309	0.02039
1831.29315	0.02056
1829.23320	0.02087
1827.17325	0.02093
1825.11331	0.02093
1823.05336	0.02086
1820.99341	0.02053
1818.93346	0.02013
1816.87352	0.01997
1814.81357	0.02013
1812.75362	0.02050
1810.69367	0.02087
1808.63373	0.02102
1806.57378	0.02100
1804.51383	0.02105
1802.45388	0.02128
1800.39394	0.02146
1798.33399	0.02141
1796.27404	0.02138
1794.21410	0.02158
1792.15415	0.02191
1790.09420	0.02187
1788.03425	0.02155
1785.97431	0.02144
1783.91436	0.02149
1781.85441	0.02158
1779.79446	0.02165
1777.73452	0.02161
1775.67457	0.02166
1773.61462	0.02199
1771.55468	0.02231
1769.49473	0.02219
1767.43478	0.02185
1765.37483	0.02157
1763.31489	0.02161
1761.25494	0.02187
1759.19499	0.02200
1757.13504	0.02208
1755.07510	0.02215
1753.01515	0.02232
1750.95520	0.02288
1748.89526	0.02337
1746.83531	0.02341
1744.77536	0.02331
1742.71541	0.02326
1740.65547	0.02333
1738.59552	0.02340
1736.53557	0.02344
1734.47562	0.02395
1732.41568	0.02447
1730.35573	0.02435
1728.29578	0.02410
1726.23583	0.02398
1724.17589	0.02412
1722.11594	0.02429
1720.05599	0.02453
1717.99605	0.02534
1715.93610	0.02609
1713.87615	0.02589
1711.81620	0.02550
1709.75626	0.02539
1707.69631	0.02560
1705.63636	0.02599
1703.57641	0.02620
1701.51647	0.02660
1699.45652	0.02754
1697.39657	0.02793
1695.33663	0.02775
1693.27668	0.02742
1691.21673	0.02736
1689.15678	0.02771
1687.09684	0.02806
1685.03689	0.02885
1682.97694	0.02979
1680.91699	0.02960
1678.85705	0.02918
1676.79710	0.02918
1674.73715	0.02963
1672.67721	0.02997
1670.61726	0.03033
1668.55731	0.03074
1666.49736	0.03062
1664.43742	0.03059
1662.37747	0.03100
1660.31752	0.03118
1658.25757	0.03107
1656.19763	0.03117
1654.13768	0.03206
1652.07773	0.03321
1650.01778	0.03299
1647.95784	0.03295
1645.89789	0.03333
1643.83794	0.03308
1641.77800	0.03271
1639.71805	0.03268
1637.65810	0.03309
1635.59815	0.03389
1633.53821	0.03393
1631.47826	0.03348
1629.41831	0.03344
1627.35836	0.03372
1625.29842	0.03394
1623.23847	0.03417
1621.17852	0.03413
1619.11858	0.03391
1617.05863	0.03414
1614.99868	0.03429
1612.93873	0.03395
1610.87879	0.03376
1608.81884	0.03380
1606.75889	0.03377
1604.69894	0.03361
1602.63900	0.03349
1600.57905	0.03339
1598.51910	0.03325
1596.45916	0.03314
1594.39921	0.03308
1592.33926	0.03298
1590.27931	0.03285
1588.21937	0.03270
1586.15942	0.03255
1584.09947	0.03244
1582.03952	0.03232
1579.97958	0.03219
1577.91963	0.03229
1575.85968	0.03259
1573.79973	0.03237
1571.73979	0.03201
1569.67984	0.03206
1567.61989	0.03201
1565.55995	0.03169
1563.50000	0.03135
1561.44005	0.03119
1559.38010	0.03199
1557.32016	0.03264
1555.26021	0.03191
1553.20026	0.03129
1551.14031	0.03100
1549.08037	0.03079
1547.02042	0.03065
1544.96047	0.03085
1542.90053	0.03133
1540.84058	0.03180
1538.78063	0.03153
1536.72068	0.03069
1534.66074	0.03037
1532.60079	0.03045
1530.54084	0.03022
1528.48089	0.03003
1526.42095	0.03010
1524.36100	0.03016
1522.30105	0.03031
1520.24111	0.03037
1518.18116	0.03017
1516.12121	0.02989
1514.06126	0.02941
1512.00132	0.02911
1509.94137	0.02933
1507.88142	0.02996
1505.82147	0.02978
1503.76153	0.02867
1501.70158	0.02796
1499.64163	0.02780
1497.58168	0.02789
1495.52174	0.02768
1493.46179	0.02726
1491.40184	0.02731
1489.34190	0.02767
1487.28195	0.02740
1485.22200	0.02672
1483.16205	0.02631
1481.10211	0.02619
1479.04216	0.02619
1476.98221	0.02641
1474.92226	0.02694
1472.86232	0.02751
1470.80237	0.02746
1468.74242	0.02710
1466.68248	0.02712
1464.62253	0.02739
1462.56258	0.02739
1460.50263	0.02739
1458.44269	0.02798
1456.38274	0.02860
1454.32279	0.02814
1452.26284	0.02758
1450.20290	0.02738
1448.14295	0.02739
1446.08300	0.02727
1444.02306	0.02706
1441.96311	0.02698
1439.90316	0.02704
1437.84321	0.02738
1435.78327	0.02780
1433.72332	0.02776
1431.66337	0.02765
1429.60342	0.02772
1427.54348	0.02771
1425.48353	0.02776
1423.42358	0.02795
1421.36363	0.02812
1419.30369	0.02852
1417.24374	0.02866
1415.18379	0.02822
1413.12385	0.02792
1411.06390	0.02790
1409.00395	0.02787
1406.94400	0.02787
1404.88406	0.02799
1402.82411	0.02799
1400.76416	0.02801
1398.70421	0.02828
1396.64427	0.02852
1394.58432	0.02845
1392.52437	0.02808
1390.46443	0.02781
1388.40448	0.02791
1386.34453	0.02805
1384.28458	0.02793
1382.22464	0.02784
1380.16469	0.02790
1378.10474	0.02800
1376.04479	0.02815
1373.98485	0.02823
1371.92490	0.02806
1369.86495	0.02788
1367.80501	0.02779
1365.74506	0.02773
1363.68511	0.02784
1361.62516	0.02788
1359.56522	0.02759
1357.50527	0.02730
1355.44532	0.02715
1353.38537	0.02706
1351.32543	0.02699
1349.26548	0.02693
1347.20553	0.02686
1345.14558	0.02679
1343.08564	0.02681
1341.02569	0.02704
1338.96574	0.02725
1336.90580	0.02709
1334.84585	0.02675
1332.78590	0.02649
1330.72595	0.02636
1328.66601	0.02636
1326.60606	0.02642
1324.54611	0.02648
1322.48616	0.02652
1320.42622	0.02662
1318.36627	0.02673
1316.30632	0.02674
1314.24638	0.02670
1312.18643	0.02664
1310.12648	0.02658
1308.06653	0.02657
1306.00659	0.02660
1303.94664	0.02663
1301.88669	0.02669
1299.82674	0.02677
1297.76680	0.02687
1295.70685	0.02697
1293.64690	0.02710
1291.58696	0.02730
1289.52701	0.02750
1287.46706	0.02769
1285.40711	0.02786
1283.34717	0.02804
1281.28722	0.02821
1279.22727	0.02838
1277.16732	0.02856
1275.10738	0.02874
1273.04743	0.02891
1270.98748	0.02909
1268.92753	0.02926
1266.86759	0.02940
1264.80764	0.02953
1262.74769	0.02967
1260.68775	0.02985
1258.62780	0.03005
1256.56785	0.03027
1254.50790	0.03057
1252.44796	0.03092
1250.38801	0.03128
1248.32806	0.03168
1246.26811	0.03212
1244.20817	0.03253
1242.14822	0.03292
1240.08827	0.03334
1238.02833	0.03380
1235.96838	0.03430
1233.90843	0.03482
1231.84848	0.03539
1229.78854	0.03606
1227.72859	0.03678
1225.66864	0.03763
1223.60869	0.03871
1221.54875	0.04000
1219.48880	0.04147
1217.42885	0.04307
1215.36891	0.04474
1213.30896	0.04644
1211.24901	0.04811
1209.18906	0.04974
1207.12912	0.05133
1205.06917	0.05278
1203.00922	0.05415
1200.94927	0.05554
1198.88933	0.05692
1196.82938	0.05820
1194.76943	0.05940
1192.70949	0.06060
1190.64954	0.06178
1188.58959	0.06292
1186.52964	0.06410
1184.46970	0.06536
1182.40975	0.06668
1180.34980	0.06812
1178.28985	0.06978
1176.22991	0.07167
1174.16996	0.07384
1172.11001	0.07628
1170.05006	0.07895
1167.99012	0.08186
1165.93017	0.08481
1163.87022	0.08718
1161.81028	0.08809
1159.75033	0.08731
1157.69038	0.08579
1155.63043	0.08476
1153.57049	0.08473
1151.51054	0.08552
1149.45059	0.08677
1147.39064	0.08828
1145.33070	0.08997
1143.27075	0.09183
1141.21080	0.09382
1139.15086	0.09589
1137.09091	0.09804
1135.03096	0.10037
1132.97101	0.10285
1130.91107	0.10543
1128.85112	0.10804
1126.79117	0.11071
1124.73122	0.11353
1122.67128	0.11645
1120.61133	0.11938
1118.55138	0.12231
1116.49144	0.12533
1114.43149	0.12849
1112.37154	0.13172
1110.31159	0.13496
1108.25165	0.13829
1106.19170	0.14174
1104.13175	0.14524
1102.07180	0.14879
1100.01186	0.15247
1097.95191	0.15627
1095.89196	0.16002
1093.83201	0.16370
1091.77207	0.16731
1089.71212	0.17076
1087.65217	0.17392
1085.59223	0.17665
1083.53228	0.17890
1081.47233	0.18070
1079.41238	0.18208
1077.35244	0.18285
1075.29249	0.18303
1073.23254	0.18281
1071.17259	0.18243
1069.11265	0.18216
1067.05270	0.18217
1064.99275	0.18239
1062.93281	0.18253
1060.87286	0.18226
1058.81291	0.18149
1056.75296	0.18049
1054.69302	0.17939
1052.63307	0.17817
1050.57312	0.17695
1048.51317	0.17583
1046.45323	0.17480
1044.39328	0.17394
1042.33333	0.17332
1040.27339	0.17285
1038.21344	0.17239
1036.15349	0.17185
1034.09354	0.17115
1032.03360	0.17034
1029.97365	0.16950
1027.91370	0.16861
1025.85375	0.16767
1023.79381	0.16672
1021.73386	0.16579
1019.67391	0.16485
1017.61396	0.16394
1015.55402	0.16312
1013.49407	0.16242
1011.43412	0.16184
1009.37418	0.16124
1007.31423	0.16046
1005.25428	0.15953
1003.19433	0.15855
1001.13439	0.15750
999.07444	0.15638
997.01449	0.15516
994.95454	0.15388
992.89460	0.15264
990.83465	0.15147
988.77470	0.15027
986.71476	0.14902
984.65481	0.14770
982.59486	0.14636
980.53491	0.14499
978.47497	0.14360
976.41502	0.14217
974.35507	0.14070
972.29512	0.13925
970.23518	0.13779
968.17523	0.13627
966.11528	0.13477
964.05534	0.13325
961.99539	0.13169
959.93544	0.13022
957.87549	0.12881
955.81555	0.12739
953.75560	0.12598
951.69565	0.12465
949.63570	0.12338
947.57576	0.12212
945.51581	0.12090
943.45586	0.11970
941.39591	0.11855
939.33597	0.11743
937.27602	0.11619
935.21607	0.11490
933.15613	0.11369
931.09618	0.11251
929.03623	0.11129
926.97628	0.11007
924.91634	0.10886
922.85639	0.10771
920.79644	0.10659
918.73649	0.10547
916.67655	0.10441
914.61660	0.10342
912.55665	0.10231
910.49671	0.10095
908.43676	0.09944
906.37681	0.09792
904.31686	0.09637
902.25692	0.09474
900.19697	0.09305
898.13702	0.09137
896.07707	0.08978
894.01713	0.08828
891.95718	0.08676
889.89723	0.08523
887.83729	0.08380
885.77734	0.08239
883.71739	0.08088
881.65744	0.07937
879.59750	0.07793
877.53755	0.07651
875.47760	0.07512
873.41765	0.07374
871.35771	0.07232
869.29776	0.07086
867.23781	0.06943
865.17786	0.06802
863.11792	0.06659
861.05797	0.06514
858.99802	0.06370
856.93808	0.06237
854.87813	0.06116
852.81818	0.06000
850.75823	0.05892
848.69829	0.05796
846.63834	0.05702
844.57839	0.05611
842.51844	0.05536
840.45850	0.05478
838.39855	0.05441
836.33860	0.05418
834.27866	0.05393
832.21871	0.05365
830.15876	0.05351
828.09881	0.05355
826.03887	0.05377
823.97892	0.05422
821.91897	0.05495
819.85902	0.05594
817.79908	0.05737
815.73913	0.05947
813.67918	0.06240
811.61924	0.06660
809.55929	0.07267
807.49934	0.08078
805.43939	0.09058
803.37945	0.10122
801.31950	0.11134
799.25955	0.11933
797.19960	0.12379
795.13966	0.12457
793.07971	0.12311
791.01976	0.12135
788.95981	0.12069
786.89987	0.12198
784.83992	0.12560
782.77997	0.13105
780.72003	0.13658
778.66008	0.14012
776.60013	0.14039
774.54018	0.13764
772.48024	0.13324
770.42029	0.12843
768.36034	0.12393
766.30039	0.11991
764.24045	0.11628
762.18050	0.11292
760.12055	0.10974
758.06061	0.10678
756.00066	0.10406
753.94071	0.10158
751.88076	0.09926
749.82082	0.09702
747.76087	0.09494
745.70092	0.09314
743.64097	0.09148
741.58103	0.08986
739.52108	0.08820
737.46113	0.08660
735.40119	0.08522
733.34124	0.08403
731.28129	0.08289
729.22134	0.08181
727.16140	0.08087
725.10145	0.07998
723.04150	0.07909
720.98155	0.07817
718.92161	0.07724
716.86166	0.07637
714.80171	0.07569
712.74176	0.07530
710.68182	0.07522
708.62187	0.07543
706.56192	0.07597
704.50198	0.07726
702.44203	0.07997
700.38208	0.08458
698.32213	0.09077
696.26219	0.09657
694.20224	0.09897
692.14229	0.09716
690.08234	0.09312
688.02240	0.08877
685.96245	0.08476
683.90250	0.08136
681.84256	0.07869
679.78261	0.07652
677.72266	0.07467
675.66271	0.07303
673.60277	0.07153
671.54282	0.07016
669.48287	0.06899
667.42292	0.06808
665.36298	0.06702
663.30303	0.06587
661.24308	0.06502
659.18314	0.06441
657.12319	0.06376
655.06324	0.06314
653.00329	0.06279
650.94335	0.06257
648.88340	0.06223
646.82345	0.06174
644.76350	0.06117
642.70356	0.06061
640.64361	0.06010
638.58366	0.05956
636.52371	0.05887
634.46377	0.05806
632.40382	0.05731
630.34387	0.05682
628.28393	0.05657
626.22398	0.05632
624.16403	0.05602
622.10408	0.05573
620.04414	0.05550
617.98419	0.05528
615.92424	0.05512
613.86429	0.05508
611.80435	0.05516
609.74440	0.05540
607.68445	0.05564
605.62451	0.05572
603.56456	0.05565
601.50461	0.05556
599.44466	0.05554
597.38472	0.05558
595.32477	0.05567
593.26482	0.05594
591.20487	0.05618
589.14493	0.05614
587.08498	0.05611
585.02503	0.05621
582.96509	0.05622
580.90514	0.05617
578.84519	0.05617
576.78524	0.05628
574.72530	0.05630
572.66535	0.05615
570.60540	0.05607
568.54545	0.05619
566.48551	0.05650
564.42556	0.05686
562.36561	0.05726
560.30566	0.05784
558.24572	0.05852
556.18577	0.05940
554.12582	0.06068
552.06588	0.06219
550.00593	0.06405
547.94598	0.06645
545.88603	0.06932
543.82609	0.07266
541.76614	0.07655
539.70619	0.08094
537.64624	0.08551
535.58630	0.09001
533.52635	0.09447
531.46640	0.09889
529.40646	0.10305
527.34651	0.10672
525.28656	0.10987
523.22661	0.11250
521.16667	0.11474
519.10672	0.11646
517.04677	0.11712
514.98682	0.11661
512.92688	0.11518
510.86693	0.11298
508.80698	0.11076
506.74704	0.10971
504.68709	0.11050
502.62714	0.11324
500.56719	0.11721
498.50725	0.12135
496.44730	0.12565
494.38735	0.13044
492.32740	0.13564
490.26746	0.14072
488.20751	0.14545
486.14756	0.15035
484.08761	0.15575
482.02767	0.16142
479.96772	0.16726
477.90777	0.17324
475.84783	0.17938
473.78788	0.18610
471.72793	0.19345
469.66798	0.20019
467.60804	0.20627
465.54809	0.21205
463.48814	0.21717
461.42819	0.22161
459.36825	0.22533
457.30830	0.22780
455.24835	0.22766
453.18841	0.22545
451.12846	0.22231
449.06851	0.21868
447.00856	0.21457
444.94862	0.21020
442.88867	0.20665
440.82872	0.20386
438.76877	0.20096
436.70883	0.19830
434.64888	0.19618
432.58893	0.19382
430.52899	0.19091
428.46904	0.18796
426.40909	0.18529
424.34914	0.18285
422.28920	0.18041
420.22925	0.17769
418.16930	0.17343
416.10935	0.16689
414.04941	0.15918
411.98946	0.15123
409.92951	0.14352
407.86956	0.13620
405.80962	0.13196
403.74967	0.13468
401.68972	0.14549
399.62978	0.16401
