3996.29776	0.02699
3994.23781	0.02700
3992.17786	0.02699
3990.11791	0.02699
3988.05797	0.02698
3985.99802	0.02692
3983.93807	0.02686
3981.87813	0.02690
3979.81818	0.02699
3977.75823	0.02707
3975.69828	0.02711
3973.63834	0.02704
3971.57839	0.02692
3969.51844	0.02690
3967.45849	0.02705
3965.39855	0.02712
3963.33860	0.02707
3961.27865	0.02701
3959.21870	0.02689
3957.15876	0.02672
3955.09881	0.02667
3953.03886	0.02677
3950.97892	0.02688
3948.91897	0.02694
3946.85902	0.02702
3944.79907	0.02719
3942.73913	0.02727
3940.67918	0.02711
3938.61923	0.02692
3936.55928	0.02693
3934.49934	0.02711
3932.43939	0.02724
3930.37944	0.02712
3928.31950	0.02693
3926.25955	0.02690
3924.19960	0.02695
3922.13965	0.02694
3920.07971	0.02698
3918.01976	0.02708
3915.95981	0.02699
3913.89986	0.02681
3911.83992	0.02672
3909.77997	0.02672
3907.72002	0.02688
3905.66008	0.02727
3903.60013	0.02759
3901.54018	0.02763
3899.48023	0.02748
3897.42029	0.02725
3895.36034	0.02713
3893.30039	0.02715
3891.24044	0.02710
3889.18050	0.02690
3887.12055	0.02691
3885.06060	0.02701
3883.00065	0.02699
3880.94071	0.02697
3878.88076	0.02681
3876.82081	0.02672
3874.76087	0.02686
3872.70092	0.02707
3870.64097	0.02730
3868.58102	0.02728
3866.52108	0.02714
3864.46113	0.02714
3862.40118	0.02704
3860.34123	0.02685
3858.28129	0.02686
3856.22134	0.02716
3854.16139	0.02764
3852.10145	0.02741
3850.04150	0.02671
3847.98155	0.02640
3845.92160	0.02643
3843.86166	0.02657
3841.80171	0.02680
3839.74176	0.02709
3837.68181	0.02714
3835.62187	0.02697
3833.56192	0.02685
3831.50197	0.02666
3829.44203	0.02652
3827.38208	0.02653
3825.32213	0.02658
3823.26218	0.02677
3821.20224	0.02711
3819.14229	0.02706
3817.08234	0.02674
3815.02239	0.02643
3812.96245	0.02619
3810.90250	0.02610
3808.84255	0.02620
3806.78260	0.02639
3804.72266	0.02654
3802.66271	0.02680
3800.60276	0.02686
3798.54282	0.02658
3796.48287	0.02636
3794.42292	0.02611
3792.36297	0.02591
3790.30303	0.02585
3788.24308	0.02594
3786.18313	0.02609
3784.12318	0.02610
3782.06324	0.02604
3780.00329	0.02607
3777.94334	0.02597
3775.88340	0.02574
3773.82345	0.02569
3771.76350	0.02588
3769.70355	0.02614
3767.64361	0.02621
3765.58366	0.02619
3763.52371	0.02616
3761.46376	0.02613
3759.40382	0.02618
3757.34387	0.02624
3755.28392	0.02631
3753.22398	0.02654
3751.16403	0.02684
3749.10408	0.02676
3747.04413	0.02661
3744.98419	0.02653
3742.92424	0.02629
3740.86429	0.02608
3738.80434	0.02611
3736.74440	0.02634
3734.68445	0.02647
3732.62450	0.02614
3730.56455	0.02573
3728.50461	0.02564
3726.44466	0.02582
3724.38471	0.02592
3722.32477	0.02580
3720.26482	0.02561
3718.20487	0.02548
3716.14492	0.02549
3714.08498	0.02570
3712.02503	0.02606
3709.96508	0.02614
3707.90513	0.02595
3705.84519	0.02583
3703.78524	0.02589
3701.72529	0.02601
3699.66535	0.02606
3697.60540	0.02612
3695.54545	0.02622
3693.48550	0.02638
3691.42556	0.02655
3689.36561	0.02648
3687.30566	0.02619
3685.24571	0.02598
3683.18577	0.02595
3681.12582	0.02603
3679.06587	0.02622
3677.00593	0.02659
3674.94598	0.02674
3672.88603	0.02655
3670.82608	0.02664
3668.76614	0.02663
3666.70619	0.02624
3664.64624	0.02601
3662.58629	0.02611
3660.52635	0.02633
3658.46640	0.02646
3656.40645	0.02650
3654.34651	0.02656
3652.28656	0.02684
3650.22661	0.02740
3648.16666	0.02758
3646.10672	0.02706
3644.04677	0.02670
3641.98682	0.02669
3639.92687	0.02673
3637.86693	0.02676
3635.80698	0.02695
3633.74703	0.02720
3631.68708	0.02754
3629.62714	0.02802
3627.56719	0.02803
3625.50724	0.02769
3623.44730	0.02761
3621.38735	0.02779
3619.32740	0.02806
3617.26745	0.02824
3615.20751	0.02830
3613.14756	0.02817
3611.08761	0.02804
3609.02766	0.02812
3606.96772	0.02805
3604.90777	0.02778
3602.84782	0.02766
3600.78788	0.02770
3598.72793	0.02779
3596.66798	0.02793
3594.60803	0.02803
3592.54809	0.02799
3590.48814	0.02802
3588.42819	0.02821
3586.36824	0.02819
3584.30830	0.02796
3582.24835	0.02789
3580.18840	0.02793
3578.12846	0.02794
3576.06851	0.02797
3574.00856	0.02801
3571.94861	0.02812
3569.88867	0.02844
3567.82872	0.02891
3565.76877	0.02899
3563.70882	0.02868
3561.64888	0.02851
3559.58893	0.02848
3557.52898	0.02844
3555.46903	0.02846
3553.40909	0.02859
3551.34914	0.02864
3549.28919	0.02870
3547.22925	0.02895
3545.16930	0.02908
3543.10935	0.02894
3541.04940	0.02883
3538.98946	0.02885
3536.92951	0.02893
3534.86956	0.02898
3532.80961	0.02905
3530.74967	0.02916
3528.68972	0.02925
3526.62977	0.02936
3524.56983	0.02947
3522.50988	0.02950
3520.44993	0.02949
3518.38998	0.02949
3516.33004	0.02947
3514.27009	0.02944
3512.21014	0.02946
3510.15019	0.02948
3508.09025	0.02947
3506.03030	0.02953
3503.97035	0.02967
3501.91041	0.02975
3499.85046	0.02976
3497.79051	0.02976
3495.73056	0.02978
3493.67062	0.02979
3491.61067	0.02979
3489.55072	0.02985
3487.49077	0.03000
3485.43083	0.03012
3483.37088	0.03020
3481.31093	0.03026
3479.25098	0.03018
3477.19104	0.03008
3475.13109	0.03011
3473.07114	0.03020
3471.01120	0.03026
3468.95125	0.03030
3466.89130	0.03032
3464.83135	0.03029
3462.77141	0.03025
3460.71146	0.03026
3458.65151	0.03034
3456.59156	0.03043
3454.53162	0.03047
3452.47167	0.03049
3450.41172	0.03056
3448.35178	0.03066
3446.29183	0.03072
3444.23188	0.03070
3442.17193	0.03063
3440.11199	0.03060
3438.05204	0.03061
3435.99209	0.03060
3433.93214	0.03062
3431.87220	0.03066
3429.81225	0.03072
3427.75230	0.03082
3425.69236	0.03086
3423.63241	0.03083
3421.57246	0.03082
3419.51251	0.03087
3417.45257	0.03094
3415.39262	0.03093
3413.33267	0.03085
3411.27272	0.03085
3409.21278	0.03093
3407.15283	0.03099
3405.09288	0.03107
3403.03293	0.03114
3400.97299	0.03117
3398.91304	0.03116
3396.85309	0.03114
3394.79315	0.03114
3392.73320	0.03117
3390.67325	0.03121
3388.61330	0.03121
3386.55336	0.03123
3384.49341	0.03125
3382.43346	0.03128
3380.37351	0.03133
3378.31357	0.03135
3376.25362	0.03130
3374.19367	0.03128
3372.13373	0.03130
3370.07378	0.03127
3368.01383	0.03122
3365.95388	0.03121
3363.89394	0.03122
3361.83399	0.03124
3359.77404	0.03124
3357.71409	0.03128
3355.65415	0.03136
3353.59420	0.03140
3351.53425	0.03136
3349.47431	0.03130
3347.41436	0.03127
3345.35441	0.03126
3343.29446	0.03123
3341.23452	0.03119
3339.17457	0.03121
3337.11462	0.03124
3335.05467	0.03122
3332.99473	0.03120
3330.93478	0.03120
3328.87483	0.03117
3326.81488	0.03116
3324.75494	0.03118
3322.69499	0.03118
3320.63504	0.03116
3318.57510	0.03116
3316.51515	0.03117
3314.45520	0.03120
3312.39525	0.03120
3310.33531	0.03122
3308.27536	0.03124
3306.21541	0.03121
3304.15546	0.03120
3302.09552	0.03124
3300.03557	0.03125
3297.97562	0.03118
3295.91568	0.03107
3293.85573	0.03099
3291.79578	0.03102
3289.73583	0.03111
3287.67589	0.03115
3285.61594	0.03112
3283.55599	0.03108
3281.49604	0.03105
3279.43610	0.03109
3277.37615	0.03115
3275.31620	0.03119
3273.25626	0.03124
3271.19631	0.03123
3269.13636	0.03114
3267.07641	0.03104
3265.01647	0.03101
3262.95652	0.03097
3260.89657	0.03087
3258.83662	0.03074
3256.77668	0.03063
3254.71673	0.03055
3252.65678	0.03054
3250.59683	0.03062
3248.53689	0.03072
3246.47694	0.03070
3244.41699	0.03062
3242.35705	0.03055
3240.29710	0.03051
3238.23715	0.03050
3236.17720	0.03050
3234.11726	0.03049
3232.05731	0.03049
3229.99736	0.03048
3227.93741	0.03047
3225.87747	0.03044
3223.81752	0.03044
3221.75757	0.03047
3219.69763	0.03050
3217.63768	0.03049
3215.57773	0.03045
3213.51778	0.03039
3211.45784	0.03034
3209.39789	0.03027
3207.33794	0.03017
3205.27799	0.03012
3203.21805	0.03019
3201.15810	0.03025
3199.09815	0.03020
3197.03821	0.03008
3194.97826	0.02997
3192.91831	0.02987
3190.85836	0.02981
3188.79842	0.02983
3186.73847	0.02991
3184.67852	0.02999
3182.61857	0.03001
3180.55863	0.02998
3178.49868	0.02992
3176.43873	0.02982
3174.37878	0.02968
3172.31884	0.02961
3170.25889	0.02964
3168.19894	0.02974
3166.13900	0.02980
3164.07905	0.02978
3162.01910	0.02966
3159.95915	0.02949
3157.89921	0.02941
3155.83926	0.02946
3153.77931	0.02949
3151.71936	0.02946
3149.65942	0.02947
3147.59947	0.02945
3145.53952	0.02938
3143.47958	0.02931
3141.41963	0.02928
3139.35968	0.02925
3137.29973	0.02922
3135.23979	0.02917
3133.17984	0.02913
3131.11989	0.02907
3129.05994	0.02901
3127.00000	0.02902
3124.94005	0.02904
3122.88010	0.02901
3120.82016	0.02901
3118.76021	0.02904
3116.70026	0.02903
3114.64031	0.02898
3112.58037	0.02890
3110.52042	0.02883
3108.46047	0.02886
3106.40052	0.02890
3104.34058	0.02883
3102.28063	0.02875
3100.22068	0.02869
3098.16073	0.02865
3096.10079	0.02864
3094.04084	0.02869
3091.98089	0.02874
3089.92095	0.02873
3087.86100	0.02865
3085.80105	0.02859
3083.74110	0.02860
3081.68116	0.02863
3079.62121	0.02864
3077.56126	0.02861
3075.50131	0.02851
3073.44137	0.02841
3071.38142	0.02835
3069.32147	0.02831
3067.26153	0.02827
3065.20158	0.02825
3063.14163	0.02826
3061.08168	0.02823
3059.02174	0.02815
3056.96179	0.02811
3054.90184	0.02811
3052.84189	0.02811
3050.78195	0.02813
3048.72200	0.02807
3046.66205	0.02794
3044.60211	0.02789
3042.54216	0.02794
3040.48221	0.02797
3038.42226	0.02796
3036.36232	0.02796
3034.30237	0.02796
3032.24242	0.02794
3030.18247	0.02790
3028.12253	0.02787
3026.06258	0.02785
3024.00263	0.02784
3021.94268	0.02780
3019.88274	0.02777
3017.82279	0.02777
3015.76284	0.02773
3013.70290	0.02767
3011.64295	0.02765
3009.58300	0.02765
3007.52305	0.02763
3005.46311	0.02758
3003.40316	0.02755
3001.34321	0.02754
2999.28326	0.02755
2997.22332	0.02760
2995.16337	0.02758
2993.10342	0.02751
2991.04348	0.02747
2988.98353	0.02748
2986.92358	0.02751
2984.86363	0.02757
2982.80369	0.02756
2980.74374	0.02752
2978.68379	0.02754
2976.62384	0.02759
2974.56390	0.02761
2972.50395	0.02760
2970.44400	0.02762
2968.38406	0.02767
2966.32411	0.02773
2964.26416	0.02779
2962.20421	0.02785
2960.14427	0.02788
2958.08432	0.02784
2956.02437	0.02782
2953.96442	0.02784
2951.90448	0.02790
2949.84453	0.02793
2947.78458	0.02792
2945.72463	0.02793
2943.66469	0.02800
2941.60474	0.02804
2939.54479	0.02806
2937.48485	0.02813
2935.42490	0.02824
2933.36495	0.02833
2931.30500	0.02834
2929.24506	0.02833
2927.18511	0.02841
2925.12516	0.02856
2923.06521	0.02869
2921.00527	0.02878
2918.94532	0.02882
2916.88537	0.02875
2914.82543	0.02863
2912.76548	0.02853
2910.70553	0.02838
2908.64558	0.02814
2906.58564	0.02798
2904.52569	0.02792
2902.46574	0.02784
2900.40579	0.02768
2898.34585	0.02754
2896.28590	0.02752
2894.22595	0.02754
2892.16601	0.02751
2890.10606	0.02746
2888.04611	0.02744
2885.98616	0.02740
2883.92622	0.02731
2881.86627	0.02722
2879.80632	0.02718
2877.74637	0.02720
2875.68643	0.02721
2873.62648	0.02719
2871.56653	0.02718
2869.50658	0.02720
2867.44664	0.02720
2865.38669	0.02715
2863.32674	0.02711
2861.26680	0.02711
2859.20685	0.02715
2857.14690	0.02724
2855.08695	0.02736
2853.02701	0.02746
2850.96706	0.02750
2848.90711	0.02744
2846.84716	0.02729
2844.78722	0.02713
2842.72727	0.02700
2840.66732	0.02687
2838.60738	0.02678
2836.54743	0.02671
2834.48748	0.02661
2832.42753	0.02650
2830.36759	0.02647
2828.30764	0.02646
2826.24769	0.02640
2824.18774	0.02631
2822.12780	0.02625
2820.06785	0.02621
2818.00790	0.02620
2815.94796	0.02617
2813.88801	0.02612
2811.82806	0.02609
2809.76811	0.02606
2807.70817	0.02604
2805.64822	0.02601
2803.58827	0.02599
2801.52832	0.02600
2799.46838	0.02601
2797.40843	0.02598
2795.34848	0.02592
2793.28853	0.02587
2791.22859	0.02583
2789.16864	0.02580
2787.10869	0.02579
2785.04875	0.02579
2782.98880	0.02577
2780.92885	0.02575
2778.86890	0.02575
2776.80896	0.02576
2774.74901	0.02571
2772.68906	0.02561
2770.62911	0.02551
2768.56917	0.02545
2766.50922	0.02545
2764.44927	0.02549
2762.38933	0.02548
2760.32938	0.02543
2758.26943	0.02545
2756.20948	0.02549
2754.14954	0.02546
2752.08959	0.02542
2750.02964	0.02541
2747.96969	0.02538
2745.90975	0.02535
2743.84980	0.02534
2741.78985	0.02532
2739.72991	0.02531
2737.66996	0.02535
2735.61001	0.02535
2733.55006	0.02532
2731.49012	0.02529
2729.43017	0.02528
2727.37022	0.02528
2725.31027	0.02527
2723.25033	0.02527
2721.19038	0.02527
2719.13043	0.02525
2717.07048	0.02522
2715.01054	0.02520
2712.95059	0.02520
2710.89064	0.02519
2708.83070	0.02512
2706.77075	0.02505
2704.71080	0.02506
2702.65085	0.02510
2700.59091	0.02507
2698.53096	0.02501
2696.47101	0.02498
2694.41106	0.02496
2692.35112	0.02494
2690.29117	0.02491
2688.23122	0.02489
2686.17128	0.02491
2684.11133	0.02492
2682.05138	0.02492
2679.99143	0.02492
2677.93149	0.02488
2675.87154	0.02480
2673.81159	0.02472
2671.75164	0.02471
2669.69170	0.02480
2667.63175	0.02498
2665.57180	0.02513
2663.51186	0.02517
2661.45191	0.02522
2659.39196	0.02536
2657.33201	0.02549
2655.27207	0.02550
2653.21212	0.02545
2651.15217	0.02542
2649.09222	0.02543
2647.03228	0.02544
2644.97233	0.02541
2642.91238	0.02534
2640.85243	0.02521
2638.79249	0.02506
2636.73254	0.02496
2634.67259	0.02487
2632.61265	0.02479
2630.55270	0.02473
2628.49275	0.02468
2626.43280	0.02464
2624.37286	0.02457
2622.31291	0.02455
2620.25296	0.02452
2618.19301	0.02446
2616.13307	0.02446
2614.07312	0.02441
2612.01317	0.02425
2609.95323	0.02406
2607.89328	0.02395
2605.83333	0.02392
2603.77338	0.02390
2601.71344	0.02388
2599.65349	0.02383
2597.59354	0.02373
2595.53359	0.02367
2593.47365	0.02367
2591.41370	0.02368
2589.35375	0.02371
2587.29381	0.02367
2585.23386	0.02352
2583.17391	0.02338
2581.11396	0.02334
2579.05402	0.02329
2576.99407	0.02324
2574.93412	0.02324
2572.87417	0.02320
2570.81423	0.02312
2568.75428	0.02310
2566.69433	0.02314
2564.63438	0.02323
2562.57444	0.02323
2560.51449	0.02311
2558.45454	0.02299
2556.39460	0.02292
2554.33465	0.02281
2552.27470	0.02276
2550.21475	0.02284
2548.15481	0.02287
2546.09486	0.02277
2544.03491	0.02268
2541.97496	0.02262
2539.91502	0.02252
2537.85507	0.02248
2535.79512	0.02254
2533.73518	0.02257
2531.67523	0.02253
2529.61528	0.02250
2527.55533	0.02250
2525.49539	0.02247
2523.43544	0.02244
2521.37549	0.02244
2519.31554	0.02241
2517.25560	0.02238
2515.19565	0.02239
2513.13570	0.02238
2511.07576	0.02234
2509.01581	0.02227
2506.95586	0.02220
2504.89591	0.02222
2502.83597	0.02232
2500.77602	0.02233
2498.71607	0.02229
2496.65612	0.02228
2494.59618	0.02225
2492.53623	0.02220
2490.47628	0.02219
2488.41633	0.02221
2486.35639	0.02219
2484.29644	0.02213
2482.23649	0.02208
2480.17655	0.02205
2478.11660	0.02202
2476.05665	0.02201
2473.99670	0.02201
2471.93676	0.02202
2469.87681	0.02204
2467.81686	0.02208
2465.75691	0.02212
2463.69697	0.02209
2461.63702	0.02202
2459.57707	0.02208
2457.51713	0.02221
2455.45718	0.02222
2453.39723	0.02217
2451.33728	0.02213
2449.27734	0.02208
2447.21739	0.02202
2445.15744	0.02194
2443.09749	0.02184
2441.03755	0.02174
2438.97760	0.02169
2436.91765	0.02175
2434.85771	0.02178
2432.79776	0.02164
2430.73781	0.02144
2428.67786	0.02136
2426.61792	0.02138
2424.55797	0.02144
2422.49802	0.02145
2420.43807	0.02143
2418.37813	0.02143
2416.31818	0.02138
2414.25823	0.02128
2412.19828	0.02124
2410.13834	0.02125
2408.07839	0.02121
2406.01844	0.02110
2403.95850	0.02100
2401.89855	0.02102
2399.83860	0.02109
2397.77865	0.02107
2395.71871	0.02098
2393.65876	0.02089
2391.59881	0.02081
2389.53886	0.02075
2387.47892	0.02074
2385.41897	0.02083
2383.35902	0.02090
2381.29908	0.02088
2379.23913	0.02087
2377.17918	0.02091
2375.11923	0.02087
2373.05929	0.02074
2370.99934	0.02065
2368.93939	0.02056
2366.87944	0.02048
2364.81950	0.02051
2362.75955	0.02061
2360.69960	0.02065
2358.63966	0.02072
2356.57971	0.02088
2354.51976	0.02112
2352.45981	0.02137
2350.39987	0.02148
2348.33992	0.02147
2346.27997	0.02140
2344.22002	0.02126
2342.16008	0.02113
2340.10013	0.02108
2338.04018	0.02105
2335.98023	0.02104
2333.92029	0.02111
2331.86034	0.02124
2329.80039	0.02171
2327.74045	0.02282
2325.68050	0.02391
2323.62055	0.02398
2321.56060	0.02332
2319.50066	0.02279
2317.44071	0.02250
2315.38076	0.02235
2313.32081	0.02234
2311.26087	0.02237
2309.20092	0.02228
2307.14097	0.02215
2305.08103	0.02205
2303.02108	0.02194
2300.96113	0.02193
2298.90118	0.02205
2296.84124	0.02222
2294.78129	0.02243
2292.72134	0.02270
2290.66139	0.02290
2288.60145	0.02301
2286.54150	0.02297
2284.48155	0.02266
2282.42161	0.02222
2280.36166	0.02190
2278.30171	0.02176
2276.24176	0.02164
2274.18182	0.02147
2272.12187	0.02129
2270.06192	0.02113
2268.00197	0.02091
2265.94203	0.02063
2263.88208	0.02056
2261.82213	0.02077
2259.76218	0.02095
2257.70224	0.02088
2255.64229	0.02066
2253.58234	0.02049
2251.52240	0.02042
2249.46245	0.02045
2247.40250	0.02060
2245.34255	0.02074
2243.28261	0.02081
2241.22266	0.02079
2239.16271	0.02063
2237.10276	0.02038
2235.04282	0.02022
2232.98287	0.02027
2230.92292	0.02038
2228.86298	0.02033
2226.80303	0.02005
2224.74308	0.01982
2222.68313	0.01978
2220.62319	0.01977
2218.56324	0.01972
2216.50329	0.01964
2214.44334	0.01966
2212.38340	0.01983
2210.32345	0.01983
2208.26350	0.01966
2206.20356	0.01966
2204.14361	0.01962
2202.08366	0.01937
2200.02371	0.01932
2197.96377	0.01964
2195.90382	0.01992
2193.84387	0.01993
2191.78392	0.01986
2189.72398	0.01983
2187.66403	0.01978
2185.60408	0.01942
2183.54413	0.01875
2181.48419	0.01840
2179.42424	0.01850
2177.36429	0.01818
2175.30435	0.01765
2173.24440	0.01802
2171.18445	0.01897
2169.12450	0.01979
2167.06456	0.02023
2165.00461	0.02035
2162.94466	0.01978
2160.88471	0.01697
2158.82477	0.01289
2156.76482	0.01137
2154.70487	0.01251
2152.64493	0.01390
2150.58498	0.01452
2148.52503	0.01478
2146.46508	0.01530
2144.40514	0.01583
2142.34519	0.01599
2140.28524	0.01602
2138.22529	0.01585
2136.16535	0.01530
2134.10540	0.01510
2132.04545	0.01558
2129.98551	0.01616
2127.92556	0.01660
2125.86561	0.01702
2123.80566	0.01742
2121.74572	0.01772
2119.68577	0.01799
2117.62582	0.01842
2115.56587	0.01882
2113.50593	0.01888
2111.44598	0.01879
2109.38603	0.01883
2107.32608	0.01888
2105.26614	0.01879
2103.20619	0.01868
2101.14624	0.01869
2099.08630	0.01869
2097.02635	0.01849
2094.96640	0.01816
2092.90645	0.01804
2090.84651	0.01811
2088.78656	0.01836
2086.72661	0.01874
2084.66666	0.01897
2082.60672	0.01908
2080.54677	0.01926
2078.48682	0.01946
2076.42688	0.01940
2074.36693	0.01905
2072.30698	0.01875
2070.24703	0.01860
2068.18709	0.01853
2066.12714	0.01857
2064.06719	0.01869
2062.00724	0.01859
2059.94730	0.01838
2057.88735	0.01841
2055.82740	0.01859
2053.76746	0.01924
2051.70751	0.01995
2049.64756	0.01967
2047.58761	0.01897
2045.52767	0.01853
2043.46772	0.01820
2041.40777	0.01821
2039.34782	0.01835
2037.28788	0.01819
2035.22793	0.01782
2033.16798	0.01741
2031.10803	0.01696
2029.04809	0.01655
2026.98814	0.01633
2024.92819	0.01634
2022.86825	0.01641
2020.80830	0.01633
2018.74835	0.01629
2016.68840	0.01635
2014.62846	0.01648
2012.56851	0.01670
2010.50856	0.01661
2008.44861	0.01605
2006.38867	0.01572
2004.32872	0.01616
2002.26877	0.01678
2000.20883	0.01706
1998.14888	0.01713
1996.08893	0.01710
1994.02898	0.01721
1991.96904	0.01762
1989.90909	0.01818
1987.84914	0.01857
1985.78919	0.01878
1983.72925	0.01940
1981.66930	0.02011
1979.60935	0.01926
1977.54941	0.01711
1975.48946	0.01590
1973.42951	0.01594
1971.36956	0.01617
1969.30962	0.01629
1967.24967	0.01624
1965.18972	0.01602
1963.12977	0.01590
1961.06983	0.01572
1959.00988	0.01546
1956.94993	0.01560
1954.88998	0.01609
1952.83004	0.01652
1950.77009	0.01677
1948.71014	0.01685
1946.65020	0.01685
1944.59025	0.01686
1942.53030	0.01681
1940.47035	0.01666
1938.41041	0.01655
1936.35046	0.01661
1934.29051	0.01676
1932.23056	0.01690
1930.17062	0.01700
1928.11067	0.01706
1926.05072	0.01711
1923.99078	0.01728
1921.93083	0.01756
1919.87088	0.01778
1917.81093	0.01783
1915.75099	0.01775
1913.69104	0.01770
1911.63109	0.01774
1909.57114	0.01783
1907.51120	0.01796
1905.45125	0.01809
1903.39130	0.01817
1901.33136	0.01821
1899.27141	0.01826
1897.21146	0.01840
1895.15151	0.01856
1893.09157	0.01863
1891.03162	0.01872
1888.97167	0.01875
1886.91172	0.01866
1884.85178	0.01855
1882.79183	0.01854
1880.73188	0.01855
1878.67193	0.01857
1876.61199	0.01869
1874.55204	0.01879
1872.49209	0.01891
1870.43215	0.01914
1868.37220	0.01924
1866.31225	0.01900
1864.25230	0.01876
1862.19236	0.01866
1860.13241	0.01868
1858.07246	0.01871
1856.01251	0.01857
1853.95257	0.01836
1851.89262	0.01827
1849.83267	0.01831
1847.77273	0.01838
1845.71278	0.01843
1843.65283	0.01833
1841.59288	0.01811
1839.53294	0.01801
1837.47299	0.01802
1835.41304	0.01803
1833.35309	0.01804
1831.29315	0.01820
1829.23320	0.01835
1827.17325	0.01833
1825.11331	0.01831
1823.05336	0.01825
1820.99341	0.01809
1818.93346	0.01786
1816.87352	0.01778
1814.81357	0.01794
1812.75362	0.01820
1810.69367	0.01837
1808.63373	0.01844
1806.57378	0.01853
1804.51383	0.01867
1802.45388	0.01885
1800.39394	0.01896
1798.33399	0.01897
1796.27404	0.01903
1794.21410	0.01919
1792.15415	0.01927
1790.09420	0.01910
1788.03425	0.01896
1785.97431	0.01896
1783.91436	0.01899
1781.85441	0.01899
1779.79446	0.01896
1777.73452	0.01895
1775.67457	0.01912
1773.61462	0.01940
1771.55468	0.01949
1769.49473	0.01936
1767.43478	0.01920
1765.37483	0.01910
1763.31489	0.01917
1761.25494	0.01934
1759.19499	0.01947
1757.13504	0.01954
1755.07510	0.01955
1753.01515	0.01974
1750.95520	0.02015
1748.89526	0.02049
1746.83531	0.02066
1744.77536	0.02083
1742.71541	0.02103
1740.65547	0.02122
1738.59552	0.02142
1736.53557	0.02166
1734.47562	0.02195
1732.41568	0.02203
1730.35573	0.02192
1728.29578	0.02172
1726.23583	0.02159
1724.17589	0.02162
1722.11594	0.02172
1720.05599	0.02200
1717.99605	0.02244
1715.93610	0.02246
1713.87615	0.02217
1711.81620	0.02208
1709.75626	0.02221
1707.69631	0.02246
1705.63636	0.02271
1703.57641	0.02294
1701.51647	0.02330
1699.45652	0.02370
1697.39657	0.02380
1695.33663	0.02353
1693.27668	0.02338
1691.21673	0.02366
1689.15678	0.02408
1687.09684	0.02452
1685.03689	0.02504
1682.97694	0.02521
1680.91699	0.02511
1678.85705	0.02517
1676.79710	0.02539
1674.73715	0.02568
1672.67721	0.02601
1670.61726	0.02631
1668.55731	0.02625
1666.49736	0.02617
1664.43742	0.02640
1662.37747	0.02664
1660.31752	0.02674
1658.25757	0.02701
1656.19763	0.02760
1654.13768	0.02818
1652.07773	0.02801
1650.01778	0.02806
1647.95784	0.02843
1645.89789	0.02837
1643.83794	0.02821
1641.77800	0.02834
1639.71805	0.02867
1637.65810	0.02912
1635.59815	0.02919
1633.53821	0.02886
1631.47826	0.02890
1629.41831	0.02917
1627.35836	0.02941
1625.29842	0.02962
1623.23847	0.02964
1621.17852	0.02960
1619.11858	0.02981
1617.05863	0.02988
1614.99868	0.02957
1612.93873	0.02950
1610.87879	0.02961
1608.81884	0.02963
1606.75889	0.02954
1604.69894	0.02949
1602.63900	0.02948
1600.57905	0.02942
1598.51910	0.02933
1596.45916	0.02928
1594.39921	0.02920
1592.33926	0.02907
1590.27931	0.02896
1588.21937	0.02887
1586.15942	0.02880
1584.09947	0.02875
1582.03952	0.02872
1579.97958	0.02884
1577.91963	0.02902
1575.85968	0.02871
1573.79973	0.02830
1571.73979	0.02836
1569.67984	0.02837
1567.61989	0.02809
1565.55995	0.02790
1563.50000	0.02792
1561.44005	0.02832
1559.38010	0.02867
1557.32016	0.02799
1555.26021	0.02747
1553.20026	0.02722
1551.14031	0.02704
1549.08037	0.02692
1547.02042	0.02701
1544.96047	0.02741
1542.90053	0.02780
1540.84058	0.02767
1538.78063	0.02674
1536.72068	0.02631
1534.66074	0.02637
1532.60079	0.02626
1530.54084	0.02608
1528.48089	0.02617
1526.42095	0.02626
1524.36100	0.02628
1522.30105	0.02634
1520.24111	0.02618
1518.18116	0.02595
1516.12121	0.02560
1514.06126	0.02525
1512.00132	0.02528
1509.94137	0.02571
1507.88142	0.02602
1505.82147	0.02509
1503.76153	0.02431
1501.70158	0.02425
1499.64163	0.02437
1497.58168	0.02432
1495.52174	0.02399
1493.46179	0.02385
1491.40184	0.02408
1489.34190	0.02418
1487.28195	0.02377
1485.22200	0.02333
1483.16205	0.02318
1481.10211	0.02321
1479.04216	0.02329
1476.98221	0.02357
1474.92226	0.02401
1472.86232	0.02416
1470.80237	0.02390
1468.74242	0.02385
1466.68248	0.02409
1464.62253	0.02421
1462.56258	0.02419
1460.50263	0.02448
1458.44269	0.02501
1456.38274	0.02493
1454.32279	0.02444
1452.26284	0.02426
1450.20290	0.02428
1448.14295	0.02428
1446.08300	0.02411
1444.02306	0.02399
1441.96311	0.02402
1439.90316	0.02421
1437.84321	0.02448
1435.78327	0.02452
1433.72332	0.02442
1431.66337	0.02447
1429.60342	0.02453
1427.54348	0.02453
1425.48353	0.02464
1423.42358	0.02483
1421.36363	0.02508
1419.30369	0.02529
1417.24374	0.02513
1415.18379	0.02486
1413.12385	0.02480
1411.06390	0.02482
1409.00395	0.02479
1406.94400	0.02482
1404.88406	0.02489
1402.82411	0.02497
1400.76416	0.02515
1398.70421	0.02538
1396.64427	0.02547
1394.58432	0.02531
1392.52437	0.02500
1390.46443	0.02490
1388.40448	0.02499
1386.34453	0.02497
1384.28458	0.02484
1382.22464	0.02484
1380.16469	0.02495
1378.10474	0.02511
1376.04479	0.02524
1373.98485	0.02518
1371.92490	0.02499
1369.86495	0.02492
1367.80501	0.02488
1365.74506	0.02486
1363.68511	0.02492
1361.62516	0.02482
1359.56522	0.02456
1357.50527	0.02438
1355.44532	0.02428
1353.38537	0.02420
1351.32543	0.02413
1349.26548	0.02408
1347.20553	0.02400
1345.14558	0.02395
1343.08564	0.02401
1341.02569	0.02420
1338.96574	0.02425
1336.90580	0.02405
1334.84585	0.02383
1332.78590	0.02368
1330.72595	0.02358
1328.66601	0.02354
1326.60606	0.02357
1324.54611	0.02359
1322.48616	0.02362
1320.42622	0.02369
1318.36627	0.02375
1316.30632	0.02374
1314.24638	0.02371
1312.18643	0.02368
1310.12648	0.02365
1308.06653	0.02366
1306.00659	0.02369
1303.94664	0.02374
1301.88669	0.02380
1299.82674	0.02386
1297.76680	0.02393
1295.70685	0.02401
1293.64690	0.02413
1291.58696	0.02431
1289.52701	0.02450
1287.46706	0.02465
1285.40711	0.02479
1283.34717	0.02496
1281.28722	0.02513
1279.22727	0.02527
1277.16732	0.02542
1275.10738	0.02562
1273.04743	0.02585
1270.98748	0.02603
1268.92753	0.02615
1266.86759	0.02626
1264.80764	0.02638
1262.74769	0.02652
1260.68775	0.02665
1258.62780	0.02682
1256.56785	0.02702
1254.50790	0.02728
1252.44796	0.02759
1250.38801	0.02792
1248.32806	0.02830
1246.26811	0.02869
1244.20817	0.02904
1242.14822	0.02938
1240.08827	0.02978
1238.02833	0.03019
1235.96838	0.03058
1233.90843	0.03099
1231.84848	0.03147
1229.78854	0.03204
1227.72859	0.03270
1225.66864	0.03344
1223.60869	0.03432
1221.54875	0.03537
1219.48880	0.03658
1217.42885	0.03789
1215.36891	0.03928
1213.30896	0.04073
1211.24901	0.04220
1209.18906	0.04365
1207.12912	0.04505
1205.06917	0.04638
1203.00922	0.04769
1200.94927	0.04903
1198.88933	0.05030
1196.82938	0.05145
1194.76943	0.05259
1192.70949	0.05380
1190.64954	0.05502
1188.58959	0.05621
1186.52964	0.05741
1184.46970	0.05867
1182.40975	0.06000
1180.34980	0.06143
1178.28985	0.06299
1176.22991	0.06471
1174.16996	0.06666
1172.11001	0.06888
1170.05006	0.07127
1167.99012	0.07377
1165.93017	0.07629
1163.87022	0.07836
1161.81028	0.07922
1159.75033	0.07859
1157.69038	0.07730
1155.63043	0.07647
1153.57049	0.07658
1151.51054	0.07743
1149.45059	0.07870
1147.39064	0.08019
1145.33070	0.08176
1143.27075	0.08337
1141.21080	0.08508
1139.15086	0.08690
1137.09091	0.08881
1135.03096	0.09084
1132.97101	0.09295
1130.91107	0.09512
1128.85112	0.09734
1126.79117	0.09963
1124.73122	0.10206
1122.67128	0.10463
1120.61133	0.10722
1118.55138	0.10978
1116.49144	0.11236
1114.43149	0.11503
1112.37154	0.11778
1110.31159	0.12057
1108.25165	0.12340
1106.19170	0.12630
1104.13175	0.12927
1102.07180	0.13230
1100.01186	0.13540
1097.95191	0.13858
1095.89196	0.14173
1093.83201	0.14478
1091.77207	0.14769
1089.71212	0.15039
1087.65217	0.15283
1085.59223	0.15498
1083.53228	0.15677
1081.47233	0.15821
1079.41238	0.15932
1077.35244	0.16004
1075.29249	0.16040
1073.23254	0.16053
1071.17259	0.16066
1069.11265	0.16098
1067.05270	0.16156
1064.99275	0.16237
1062.93281	0.16316
1060.87286	0.16366
1058.81291	0.16377
1056.75296	0.16366
1054.69302	0.16341
1052.63307	0.16307
1050.57312	0.16267
1048.51317	0.16223
1046.45323	0.16181
1044.39328	0.16153
1042.33333	0.16142
1040.27339	0.16139
1038.21344	0.16129
1036.15349	0.16101
1034.09354	0.16059
1032.03360	0.16007
1029.97365	0.15949
1027.91370	0.15879
1025.85375	0.15796
1023.79381	0.15709
1021.73386	0.15624
1019.67391	0.15544
1017.61396	0.15474
1015.55402	0.15413
1013.49407	0.15356
1011.43412	0.15299
1009.37418	0.15242
1007.31423	0.15177
1005.25428	0.15094
1003.19433	0.14997
1001.13439	0.14898
999.07444	0.14794
997.01449	0.14684
994.95454	0.14570
992.89460	0.14453
990.83465	0.14335
988.77470	0.14216
986.71476	0.14093
984.65481	0.13968
982.59486	0.13838
980.53491	0.13703
978.47497	0.13570
976.41502	0.13429
974.35507	0.13279
972.29512	0.13134
970.23518	0.12988
968.17523	0.12834
966.11528	0.12674
964.05534	0.12519
961.99539	0.12368
959.93544	0.12217
957.87549	0.12069
955.81555	0.11925
953.75560	0.11780
951.69565	0.11630
949.63570	0.11484
947.57576	0.11350
945.51581	0.11226
943.45586	0.11098
941.39591	0.10965
939.33597	0.10836
937.27602	0.10709
935.21607	0.10572
933.15613	0.10439
931.09618	0.10318
929.03623	0.10203
926.97628	0.10089
924.91634	0.09976
922.85639	0.09866
920.79644	0.09765
918.73649	0.09664
916.67655	0.09559
914.61660	0.09458
912.55665	0.09354
910.49671	0.09230
908.43676	0.09086
906.37681	0.08940
904.31686	0.08788
902.25692	0.08627
900.19697	0.08468
898.13702	0.08309
896.07707	0.08154
894.01713	0.08012
891.95718	0.07881
889.89723	0.07744
887.83729	0.07602
885.77734	0.07464
883.71739	0.07337
881.65744	0.07214
879.59750	0.07092
877.53755	0.06967
875.47760	0.06834
873.41765	0.06702
871.35771	0.06576
869.29776	0.06452
867.23781	0.06328
865.17786	0.06212
863.11792	0.06101
861.05797	0.05984
858.99802	0.05866
856.93808	0.05755
854.87813	0.05649
852.81818	0.05545
850.75823	0.05453
848.69829	0.05375
846.63834	0.05295
844.57839	0.05205
842.51844	0.05127
840.45850	0.05074
838.39855	0.05039
836.33860	0.05013
834.27866	0.04985
832.21871	0.04958
830.15876	0.04939
828.09881	0.04936
826.03887	0.04946
823.97892	0.04974
821.91897	0.05035
819.85902	0.05130
817.79908	0.05259
815.73913	0.05438
813.67918	0.05694
811.61924	0.06080
809.55929	0.06641
807.49934	0.07388
805.43939	0.08295
803.37945	0.09274
801.31950	0.10206
799.25955	0.10969
797.19960	0.11444
795.13966	0.11591
793.07971	0.11518
791.01976	0.11393
788.95981	0.11335
786.89987	0.11431
784.83992	0.11725
782.77997	0.12181
780.72003	0.12666
778.66008	0.13001
776.60013	0.13055
774.54018	0.12838
772.48024	0.12469
770.42029	0.12048
768.36034	0.11631
766.30039	0.11254
764.24045	0.10915
762.18050	0.10597
760.12055	0.10292
758.06061	0.09996
756.00066	0.09706
753.94071	0.09438
751.88076	0.09205
749.82082	0.09002
747.76087	0.08820
745.70092	0.08659
743.64097	0.08505
741.58103	0.08343
739.52108	0.08177
737.46113	0.08021
735.40119	0.07878
733.34124	0.07756
731.28129	0.07662
729.22134	0.07588
727.16140	0.07521
725.10145	0.07457
723.04150	0.07390
720.98155	0.07309
718.92161	0.07213
716.86166	0.07123
714.80171	0.07056
712.74176	0.07008
710.68182	0.06970
708.62187	0.06959
706.56192	0.07005
704.50198	0.07138
702.44203	0.07394
700.38208	0.07828
698.32213	0.08445
696.26219	0.09056
694.20224	0.09336
692.14229	0.09180
690.08234	0.08788
688.02240	0.08357
685.96245	0.07960
683.90250	0.07628
681.84256	0.07370
679.78261	0.07166
677.72266	0.06987
675.66271	0.06825
673.60277	0.06686
671.54282	0.06585
669.48287	0.06482
667.42292	0.06317
665.36298	0.06208
663.30303	0.06163
661.24308	0.06123
659.18314	0.06088
657.12319	0.06057
655.06324	0.06043
653.00329	0.06058
650.94335	0.06069
648.88340	0.06043
646.82345	0.05993
644.76350	0.05928
642.70356	0.05839
640.64361	0.05744
638.58366	0.05668
636.52371	0.05605
634.46377	0.05544
632.40382	0.05496
630.34387	0.05469
628.28393	0.05448
626.22398	0.05420
624.16403	0.05393
622.10408	0.05386
620.04414	0.05398
617.98419	0.05424
615.92424	0.05463
613.86429	0.05507
611.80435	0.05546
609.74440	0.05590
607.68445	0.05636
605.62451	0.05670
603.56456	0.05693
601.50461	0.05709
599.44466	0.05721
597.38472	0.05748
595.32477	0.05800
593.26482	0.05854
591.20487	0.05868
589.14493	0.05855
587.08498	0.05864
585.02503	0.05889
582.96509	0.05907
580.90514	0.05928
578.84519	0.05947
576.78524	0.05956
574.72530	0.05958
572.66535	0.05966
570.60540	0.05983
568.54545	0.05991
566.48551	0.05990
564.42556	0.06002
562.36561	0.06026
560.30566	0.06059
558.24572	0.06114
556.18577	0.06202
554.12582	0.06312
552.06588	0.06431
550.00593	0.06583
547.94598	0.06795
545.88603	0.07068
543.82609	0.07412
541.76614	0.07836
539.70619	0.08308
537.64624	0.08782
535.58630	0.09255
533.52635	0.09712
531.46640	0.10112
529.40646	0.10456
527.34651	0.10790
525.28656	0.11103
523.22661	0.11332
521.16667	0.11489
519.10672	0.11606
517.04677	0.11666
514.98682	0.11654
512.92688	0.11573
510.86693	0.11415
508.80698	0.11224
506.74704	0.11123
504.68709	0.11210
502.62714	0.11449
500.56719	0.11755
498.50725	0.12090
496.44730	0.12457
494.38735	0.12858
492.32740	0.13298
490.26746	0.13751
488.20751	0.14184
486.14756	0.14645
484.08761	0.15177
482.02767	0.15750
479.96772	0.16343
477.90777	0.16955
475.84783	0.17577
473.78788	0.18234
471.72793	0.18916
469.66798	0.19521
467.60804	0.20074
465.54809	0.20625
463.48814	0.21114
461.42819	0.21487
459.36825	0.21752
457.30830	0.21923
455.24835	0.21952
453.18841	0.21875
451.12846	0.21775
449.06851	0.21656
447.00856	0.21461
444.94862	0.21219
442.88867	0.20973
440.82872	0.20719
438.76877	0.20510
436.70883	0.20376
434.64888	0.20244
432.58893	0.20021
430.52899	0.19754
428.46904	0.19539
426.40909	0.19355
424.34914	0.19138
422.28920	0.18953
420.22925	0.18746
418.16930	0.18203
416.10935	0.17564
414.04941	0.16929
411.98946	0.16100
409.92951	0.15192
407.86956	0.14405
405.80962	0.13956
403.74967	0.14150
401.68972	0.15152
399.62978	0.16904
